# OpenSignals Text File Format. Version 1
# {"98:D3:71:FD:62:1E": {"position": 0, "device": "bitalino_rev", "device name": "98:D3:71:FD:62:1E", "device connection": "BTH98:D3:71:FD:62:1E", "sampling rate": 100, "resolution": [4, 1, 1, 1, 1, 10], "firmware version": 1282, "comments": "", "keywords": "", "mode": 0, "sync interval": 2, "date": "2023-7-5", "time": "18:2:43.754", "channels": [1], "sensor": ["RAW"], "label": ["A1"], "column": ["nSeq", "I1", "I2", "O1", "O2", "A1"], "special": [{}], "digital IO": [0, 0, 1, 1], "convertedValues": 0}, "98:D3:41:FD:4F:0D": {"position": 1, "device": "bitalino_rev", "device name": "98:D3:41:FD:4F:0D", "device connection": "BTH98:D3:41:FD:4F:0D", "sampling rate": 100, "resolution": [4, 1, 1, 1, 1, 10], "firmware version": 1282, "comments": "", "keywords": "", "mode": 0, "sync interval": 2, "date": "2023-7-5", "time": "18:2:43.754", "channels": [1], "sensor": ["RAW"], "label": ["A1"], "column": ["nSeq", "I1", "I2", "O1", "O2", "A1"], "special": [{}], "digital IO": [0, 0, 1, 1], "convertedValues": 0}, "98:D3:51:FD:70:FB": {"position": 2, "device": "bitalino_rev", "device name": "98:D3:51:FD:70:FB", "device connection": "BTH98:D3:51:FD:70:FB", "sampling rate": 100, "resolution": [4, 1, 1, 1, 1, 10], "firmware version": 1282, "comments": "", "keywords": "", "mode": 0, "sync interval": 2, "date": "2023-7-5", "time": "18:2:43.754", "channels": [1], "sensor": ["RAW"], "label": ["A1"], "column": ["nSeq", "I1", "I2", "O1", "O2", "A1"], "special": [{}], "digital IO": [0, 0, 1, 1], "convertedValues": 0}}
# EndOfHeader
2	0	0	0	0	516	0	0	0	0	0	460	6	0	0	0	0	503	
3	0	0	0	0	497	1	0	0	0	0	523	7	0	0	0	0	518	
4	0	0	0	0	528	2	0	0	0	0	522	8	0	0	0	0	499	
5	0	0	0	0	500	3	0	0	0	0	433	9	0	0	0	0	512	
6	0	0	0	0	503	4	0	0	0	0	579	10	0	0	0	0	510	
7	0	0	0	0	512	5	0	0	0	0	462	11	0	0	0	0	504	
8	0	0	0	0	496	6	0	0	0	0	523	12	0	0	0	0	517	
9	0	0	0	0	518	7	0	0	0	0	523	13	0	0	0	0	500	
10	0	0	0	0	499	8	0	0	0	0	435	14	0	0	0	0	510	
11	0	0	0	0	510	9	0	0	0	0	578	15	0	0	0	0	508	
12	0	0	0	0	512	10	0	0	0	0	459	0	0	0	0	0	503	
13	0	0	0	0	502	11	0	0	0	0	523	1	0	0	0	0	519	
14	0	0	0	0	505	12	0	0	0	0	521	2	0	0	0	0	502	
15	0	0	0	0	511	13	0	0	0	0	437	3	0	0	0	0	515	
0	0	0	0	0	505	14	0	0	0	0	576	4	0	0	0	0	507	
1	0	0	0	0	510	15	0	0	0	0	460	5	0	0	0	0	503	
2	0	0	0	0	499	0	0	0	0	0	524	6	0	0	0	0	508	
3	0	0	0	0	504	1	0	0	0	0	519	7	0	0	0	0	500	
4	0	0	0	0	512	2	0	0	0	0	436	8	0	0	0	0	511	
5	0	0	0	0	503	3	0	0	0	0	575	9	0	0	0	0	510	
6	0	0	0	0	510	4	0	0	0	0	461	10	0	0	0	0	502	
7	0	0	0	0	508	5	0	0	0	0	524	11	0	0	0	0	517	
8	0	0	0	0	503	6	0	0	0	0	519	12	0	0	0	0	500	
9	0	0	0	0	511	7	0	0	0	0	440	13	0	0	0	0	512	
10	0	0	0	0	504	8	0	0	0	0	577	14	0	0	0	0	509	
11	0	0	0	0	510	9	0	0	0	0	458	15	0	0	0	0	504	
12	0	0	0	0	508	10	0	0	0	0	522	0	0	0	0	0	519	
13	0	0	0	0	504	11	0	0	0	0	520	1	0	0	0	0	500	
14	0	0	0	0	509	12	0	0	0	0	437	2	0	0	0	0	510	
15	0	0	0	0	502	13	0	0	0	0	579	3	0	0	0	0	508	
0	0	0	0	0	510	14	0	0	0	0	455	4	0	0	0	0	502	
1	0	0	0	0	503	15	0	0	0	0	521	5	0	0	0	0	519	
2	0	0	0	0	501	0	0	0	0	0	516	6	0	0	0	0	501	
3	0	0	0	0	511	1	0	0	0	0	436	7	0	0	0	0	512	
4	0	0	0	0	504	2	0	0	0	0	579	8	0	0	0	0	506	
5	0	0	0	0	510	3	0	0	0	0	456	9	0	0	0	0	501	
6	0	0	0	0	509	4	0	0	0	0	524	10	0	0	0	0	518	
7	0	0	0	0	506	5	0	0	0	0	516	11	0	0	0	0	499	
8	0	0	0	0	508	6	0	0	0	0	440	12	0	0	0	0	510	
9	0	0	0	0	507	7	0	0	0	0	580	13	0	0	0	0	505	
10	0	0	0	0	508	8	0	0	0	0	455	14	0	0	0	0	505	
11	0	0	0	0	509	9	0	0	0	0	527	15	0	0	0	0	517	
12	0	0	0	0	504	10	0	0	0	0	515	0	0	0	0	0	500	
13	0	0	0	0	510	11	0	0	0	0	436	1	0	0	0	0	513	
14	0	0	0	0	505	12	0	0	0	0	581	2	0	0	0	0	508	
15	0	0	0	0	505	13	0	0	0	0	455	3	0	0	0	0	497	
0	0	0	0	0	513	14	0	0	0	0	527	4	0	0	0	0	518	
1	0	0	0	0	503	15	0	0	0	0	515	5	0	0	0	0	499	
2	0	0	0	0	508	0	0	0	0	0	438	6	0	0	0	0	512	
3	0	0	0	0	505	1	0	0	0	0	581	7	0	0	0	0	507	
4	0	0	0	0	507	2	0	0	0	0	452	8	0	0	0	0	504	
5	0	0	0	0	510	3	0	0	0	0	527	9	0	0	0	0	519	
6	0	0	0	0	503	4	0	0	0	0	516	10	0	0	0	0	502	
7	0	0	0	0	510	5	0	0	0	0	440	11	0	0	0	0	512	
8	0	0	0	0	505	6	0	0	0	0	584	12	0	0	0	0	506	
9	0	0	0	0	507	7	0	0	0	0	450	13	0	0	0	0	503	
10	0	0	0	0	509	8	0	0	0	0	527	14	0	0	0	0	518	
11	0	0	0	0	503	9	0	0	0	0	513	15	0	0	0	0	502	
12	0	0	0	0	510	10	0	0	0	0	441	0	0	0	0	0	510	
13	0	0	0	0	505	11	0	0	0	0	583	1	0	0	0	0	510	
14	0	0	0	0	507	12	0	0	0	0	449	2	0	0	0	0	504	
15	0	0	0	0	507	13	0	0	0	0	533	3	0	0	0	0	519	
0	0	0	0	0	504	14	0	0	0	0	512	4	0	0	0	0	500	
1	0	0	0	0	511	15	0	0	0	0	437	5	0	0	0	0	511	
2	0	0	0	0	505	0	0	0	0	0	588	6	0	0	0	0	507	
3	0	0	0	0	496	1	0	0	0	0	448	7	0	0	0	0	503	
4	0	0	0	0	511	2	0	0	0	0	531	8	0	0	0	0	518	
5	0	0	0	0	504	3	0	0	0	0	508	9	0	0	0	0	500	
6	0	0	0	0	509	4	0	0	0	0	440	10	0	0	0	0	511	
7	0	0	0	0	508	5	0	0	0	0	587	11	0	0	0	0	509	
8	0	0	0	0	504	6	0	0	0	0	444	12	0	0	0	0	504	
9	0	0	0	0	510	7	0	0	0	0	532	13	0	0	0	0	517	
10	0	0	0	0	503	8	0	0	0	0	509	14	0	0	0	0	497	
11	0	0	0	0	508	9	0	0	0	0	441	15	0	0	0	0	512	
12	0	0	0	0	505	10	0	0	0	0	586	0	0	0	0	0	508	
13	0	0	0	0	501	11	0	0	0	0	437	1	0	0	0	0	507	
14	0	0	0	0	511	12	0	0	0	0	534	2	0	0	0	0	516	
15	0	0	0	0	500	13	0	0	0	0	508	3	0	0	0	0	499	
0	0	0	0	0	511	14	0	0	0	0	443	4	0	0	0	0	513	
1	0	0	0	0	504	15	0	0	0	0	588	5	0	0	0	0	506	
2	0	0	0	0	517	0	0	0	0	0	446	6	0	0	0	0	504	
3	0	0	0	0	512	1	0	0	0	0	534	7	0	0	0	0	519	
4	0	0	0	0	502	2	0	0	0	0	504	8	0	0	0	0	497	
5	0	0	0	0	511	3	0	0	0	0	441	9	0	0	0	0	512	
6	0	0	0	0	505	4	0	0	0	0	585	10	0	0	0	0	508	
7	0	0	0	0	509	5	0	0	0	0	443	11	0	0	0	0	504	
8	0	0	0	0	512	6	0	0	0	0	535	12	0	0	0	0	519	
9	0	0	0	0	502	7	0	0	0	0	504	13	0	0	0	0	497	
10	0	0	0	0	513	8	0	0	0	0	446	14	0	0	0	0	513	
11	0	0	0	0	502	9	0	0	0	0	588	15	0	0	0	0	503	
12	0	0	0	0	510	10	0	0	0	0	444	0	0	0	0	0	502	
13	0	0	0	0	512	11	0	0	0	0	536	1	0	0	0	0	518	
14	0	0	0	0	501	12	0	0	0	0	506	2	0	0	0	0	498	
15	0	0	0	0	511	13	0	0	0	0	444	3	0	0	0	0	512	
0	0	0	0	0	504	14	0	0	0	0	583	4	0	0	0	0	508	
1	0	0	0	0	505	15	0	0	0	0	447	5	0	0	0	0	505	
2	0	0	0	0	508	0	0	0	0	0	534	6	0	0	0	0	518	
3	0	0	0	0	500	1	0	0	0	0	505	7	0	0	0	0	501	
4	0	0	0	0	512	2	0	0	0	0	445	8	0	0	0	0	511	
5	0	0	0	0	503	3	0	0	0	0	588	9	0	0	0	0	508	
6	0	0	0	0	506	4	0	0	0	0	445	10	0	0	0	0	505	
7	0	0	0	0	511	5	0	0	0	0	534	11	0	0	0	0	518	
8	0	0	0	0	493	6	0	0	0	0	503	12	0	0	0	0	495	
9	0	0	0	0	512	7	0	0	0	0	444	13	0	0	0	0	510	
10	0	0	0	0	507	8	0	0	0	0	587	14	0	0	0	0	509	
11	0	0	0	0	508	9	0	0	0	0	442	15	0	0	0	0	501	
12	0	0	0	0	511	10	0	0	0	0	536	0	0	0	0	0	517	
13	0	0	0	0	502	11	0	0	0	0	501	1	0	0	0	0	500	
14	0	0	0	0	510	12	0	0	0	0	450	2	0	0	0	0	508	
15	0	0	0	0	504	13	0	0	0	0	592	3	0	0	0	0	507	
0	0	0	0	0	506	14	0	0	0	0	443	4	0	0	0	0	503	
1	0	0	0	0	511	15	0	0	0	0	535	5	0	0	0	0	519	
2	0	0	0	0	500	0	0	0	0	0	500	6	0	0	0	0	501	
3	0	0	0	0	513	1	0	0	0	0	448	7	0	0	0	0	511	
4	0	0	0	0	505	2	0	0	0	0	591	8	0	0	0	0	509	
5	0	0	0	0	516	3	0	0	0	0	444	9	0	0	0	0	503	
6	0	0	0	0	511	4	0	0	0	0	537	10	0	0	0	0	519	
7	0	0	0	0	501	5	0	0	0	0	500	11	0	0	0	0	501	
8	0	0	0	0	514	6	0	0	0	0	448	12	0	0	0	0	510	
9	0	0	0	0	502	7	0	0	0	0	588	13	0	0	0	0	507	
10	0	0	0	0	509	8	0	0	0	0	443	14	0	0	0	0	503	
11	0	0	0	0	511	9	0	0	0	0	536	15	0	0	0	0	519	
12	0	0	0	0	501	10	0	0	0	0	497	0	0	0	0	0	501	
13	0	0	0	0	518	11	0	0	0	0	451	1	0	0	0	0	512	
14	0	0	0	0	504	12	0	0	0	0	590	2	0	0	0	0	508	
15	0	0	0	0	512	13	0	0	0	0	435	3	0	0	0	0	507	
0	0	0	0	0	510	14	0	0	0	0	538	4	0	0	0	0	517	
1	0	0	0	0	500	15	0	0	0	0	499	5	0	0	0	0	498	
2	0	0	0	0	513	0	0	0	0	0	452	6	0	0	0	0	510	
3	0	0	0	0	503	1	0	0	0	0	590	7	0	0	0	0	510	
4	0	0	0	0	511	2	0	0	0	0	437	8	0	0	0	0	504	
5	0	0	0	0	511	3	0	0	0	0	538	9	0	0	0	0	518	
6	0	0	0	0	502	4	0	0	0	0	497	10	0	0	0	0	499	
7	0	0	0	0	512	5	0	0	0	0	453	11	0	0	0	0	511	
8	0	0	0	0	503	6	0	0	0	0	592	12	0	0	0	0	508	
9	0	0	0	0	513	7	0	0	0	0	437	13	0	0	0	0	504	
10	0	0	0	0	511	8	0	0	0	0	540	14	0	0	0	0	519	
11	0	0	0	0	502	9	0	0	0	0	495	15	0	0	0	0	500	
12	0	0	0	0	513	10	0	0	0	0	453	0	0	0	0	0	512	
13	0	0	0	0	505	11	0	0	0	0	589	1	0	0	0	0	509	
14	0	0	0	0	506	12	0	0	0	0	435	2	0	0	0	0	504	
15	0	0	0	0	511	13	0	0	0	0	540	3	0	0	0	0	516	
0	0	0	0	0	503	14	0	0	0	0	495	4	0	0	0	0	497	
1	0	0	0	0	510	15	0	0	0	0	454	5	0	0	0	0	511	
2	0	0	0	0	504	0	0	0	0	0	590	6	0	0	0	0	511	
3	0	0	0	0	510	1	0	0	0	0	440	7	0	0	0	0	504	
4	0	0	0	0	513	2	0	0	0	0	540	8	0	0	0	0	519	
5	0	0	0	0	501	3	0	0	0	0	495	9	0	0	0	0	500	
6	0	0	0	0	511	4	0	0	0	0	456	10	0	0	0	0	512	
7	0	0	0	0	504	5	0	0	0	0	588	11	0	0	0	0	506	
8	0	0	0	0	509	6	0	0	0	0	440	12	0	0	0	0	506	
9	0	0	0	0	511	7	0	0	0	0	536	13	0	0	0	0	517	
10	0	0	0	0	500	8	0	0	0	0	495	14	0	0	0	0	499	
11	0	0	0	0	511	9	0	0	0	0	456	15	0	0	0	0	512	
12	0	0	0	0	503	10	0	0	0	0	588	0	0	0	0	0	507	
13	0	0	0	0	511	11	0	0	0	0	438	1	0	0	0	0	501	
14	0	0	0	0	511	12	0	0	0	0	537	2	0	0	0	0	515	
15	0	0	0	0	500	13	0	0	0	0	493	3	0	0	0	0	497	
0	0	0	0	0	496	14	0	0	0	0	461	4	0	0	0	0	511	
1	0	0	0	0	504	15	0	0	0	0	589	5	0	0	0	0	508	
2	0	0	0	0	507	0	0	0	0	0	438	6	0	0	0	0	504	
3	0	0	0	0	512	1	0	0	0	0	543	7	0	0	0	0	517	
4	0	0	0	0	501	2	0	0	0	0	496	8	0	0	0	0	495	
5	0	0	0	0	512	3	0	0	0	0	460	9	0	0	0	0	511	
6	0	0	0	0	503	4	0	0	0	0	589	10	0	0	0	0	509	
7	0	0	0	0	510	5	0	0	0	0	436	11	0	0	0	0	503	
8	0	0	0	0	508	6	0	0	0	0	542	12	0	0	0	0	518	
9	0	0	0	0	496	7	0	0	0	0	489	13	0	0	0	0	497	
10	0	0	0	0	511	8	0	0	0	0	460	14	0	0	0	0	514	
11	0	0	0	0	503	9	0	0	0	0	591	15	0	0	0	0	508	
12	0	0	0	0	510	10	0	0	0	0	433	0	0	0	0	0	505	
13	0	0	0	0	512	11	0	0	0	0	540	1	0	0	0	0	517	
14	0	0	0	0	501	12	0	0	0	0	493	2	0	0	0	0	498	
15	0	0	0	0	518	13	0	0	0	0	461	3	0	0	0	0	513	
0	0	0	0	0	499	14	0	0	0	0	590	4	0	0	0	0	509	
1	0	0	0	0	510	15	0	0	0	0	439	5	0	0	0	0	504	
2	0	0	0	0	509	0	0	0	0	0	536	6	0	0	0	0	515	
3	0	0	0	0	500	1	0	0	0	0	493	7	0	0	0	0	498	
4	0	0	0	0	517	2	0	0	0	0	460	8	0	0	0	0	513	
5	0	0	0	0	497	3	0	0	0	0	583	9	0	0	0	0	508	
6	0	0	0	0	511	4	0	0	0	0	440	10	0	0	0	0	504	
7	0	0	0	0	508	5	0	0	0	0	541	11	0	0	0	0	515	
8	0	0	0	0	502	6	0	0	0	0	492	12	0	0	0	0	499	
9	0	0	0	0	512	7	0	0	0	0	463	13	0	0	0	0	513	
10	0	0	0	0	503	8	0	0	0	0	582	14	0	0	0	0	506	
11	0	0	0	0	509	9	0	0	0	0	438	15	0	0	0	0	503	
12	0	0	0	0	507	10	0	0	0	0	540	0	0	0	0	0	516	
13	0	0	0	0	501	11	0	0	0	0	493	1	0	0	0	0	497	
14	0	0	0	0	514	12	0	0	0	0	464	2	0	0	0	0	513	
15	0	0	0	0	500	13	0	0	0	0	585	3	0	0	0	0	507	
0	0	0	0	0	512	14	0	0	0	0	437	4	0	0	0	0	503	
1	0	0	0	0	506	15	0	0	0	0	540	5	0	0	0	0	516	
2	0	0	0	0	503	0	0	0	0	0	492	6	0	0	0	0	499	
3	0	0	0	0	513	1	0	0	0	0	466	7	0	0	0	0	513	
4	0	0	0	0	506	2	0	0	0	0	585	8	0	0	0	0	507	
5	0	0	0	0	512	3	0	0	0	0	438	9	0	0	0	0	505	
6	0	0	0	0	509	4	0	0	0	0	540	10	0	0	0	0	518	
7	0	0	0	0	511	5	0	0	0	0	489	11	0	0	0	0	499	
8	0	0	0	0	503	6	0	0	0	0	464	12	0	0	0	0	511	
9	0	0	0	0	515	7	0	0	0	0	588	13	0	0	0	0	507	
10	0	0	0	0	508	8	0	0	0	0	436	14	0	0	0	0	506	
11	0	0	0	0	502	9	0	0	0	0	541	15	0	0	0	0	514	
12	0	0	0	0	514	10	0	0	0	0	491	0	0	0	0	0	498	
13	0	0	0	0	494	11	0	0	0	0	466	1	0	0	0	0	510	
14	0	0	0	0	514	12	0	0	0	0	585	2	0	0	0	0	509	
15	0	0	0	0	510	13	0	0	0	0	436	3	0	0	0	0	505	
0	0	0	0	0	501	14	0	0	0	0	540	4	0	0	0	0	515	
1	0	0	0	0	519	15	0	0	0	0	488	5	0	0	0	0	500	
2	0	0	0	0	498	0	0	0	0	0	466	6	0	0	0	0	512	
3	0	0	0	0	515	1	0	0	0	0	584	7	0	0	0	0	508	
4	0	0	0	0	508	2	0	0	0	0	431	8	0	0	0	0	507	
5	0	0	0	0	500	3	0	0	0	0	543	9	0	0	0	0	515	
6	0	0	0	0	519	4	0	0	0	0	488	10	0	0	0	0	495	
7	0	0	0	0	505	5	0	0	0	0	470	11	0	0	0	0	516	
8	0	0	0	0	516	6	0	0	0	0	587	12	0	0	0	0	509	
9	0	0	0	0	505	7	0	0	0	0	429	13	0	0	0	0	506	
10	0	0	0	0	498	8	0	0	0	0	543	14	0	0	0	0	517	
11	0	0	0	0	521	9	0	0	0	0	486	15	0	0	0	0	503	
12	0	0	0	0	494	10	0	0	0	0	470	0	0	0	0	0	514	
13	0	0	0	0	514	11	0	0	0	0	585	1	0	0	0	0	512	
14	0	0	0	0	504	12	0	0	0	0	430	2	0	0	0	0	508	
15	0	0	0	0	495	13	0	0	0	0	547	3	0	0	0	0	510	
0	0	0	0	0	520	14	0	0	0	0	485	4	0	0	0	0	497	
1	0	0	0	0	494	15	0	0	0	0	472	5	0	0	0	0	513	
2	0	0	0	0	516	0	0	0	0	0	582	6	0	0	0	0	511	
3	0	0	0	0	497	1	0	0	0	0	432	7	0	0	0	0	508	
4	0	0	0	0	500	2	0	0	0	0	545	8	0	0	0	0	518	
5	0	0	0	0	521	3	0	0	0	0	486	9	0	0	0	0	499	
6	0	0	0	0	494	4	0	0	0	0	473	10	0	0	0	0	508	
7	0	0	0	0	513	5	0	0	0	0	583	11	0	0	0	0	509	
8	0	0	0	0	504	6	0	0	0	0	433	12	0	0	0	0	496	
9	0	0	0	0	493	7	0	0	0	0	547	13	0	0	0	0	522	
10	0	0	0	0	519	8	0	0	0	0	485	14	0	0	0	0	497	
11	0	0	0	0	494	9	0	0	0	0	475	15	0	0	0	0	519	
12	0	0	0	0	512	10	0	0	0	0	583	0	0	0	0	0	497	
13	0	0	0	0	509	11	0	0	0	0	431	1	0	0	0	0	505	
14	0	0	0	0	499	12	0	0	0	0	544	2	0	0	0	0	517	
15	0	0	0	0	519	13	0	0	0	0	486	3	0	0	0	0	502	
0	0	0	0	0	495	14	0	0	0	0	478	4	0	0	0	0	511	
1	0	0	0	0	520	15	0	0	0	0	582	5	0	0	0	0	509	
2	0	0	0	0	505	0	0	0	0	0	427	6	0	0	0	0	501	
3	0	0	0	0	497	1	0	0	0	0	550	7	0	0	0	0	505	
4	0	0	0	0	521	2	0	0	0	0	481	8	0	0	0	0	493	
5	0	0	0	0	499	3	0	0	0	0	479	9	0	0	0	0	519	
6	0	0	0	0	519	4	0	0	0	0	581	10	0	0	0	0	509	
7	0	0	0	0	506	5	0	0	0	0	428	11	0	0	0	0	510	
8	0	0	0	0	509	6	0	0	0	0	550	12	0	0	0	0	520	
9	0	0	0	0	527	7	0	0	0	0	484	13	0	0	0	0	498	
10	0	0	0	0	499	8	0	0	0	0	479	14	0	0	0	0	522	
11	0	0	0	0	523	9	0	0	0	0	579	15	0	0	0	0	496	
12	0	0	0	0	510	10	0	0	0	0	438	0	0	0	0	0	511	
13	0	0	0	0	503	11	0	0	0	0	547	1	0	0	0	0	514	
14	0	0	0	0	512	12	0	0	0	0	484	2	0	0	0	0	501	
15	0	0	0	0	499	13	0	0	0	0	481	3	0	0	0	0	518	
0	0	0	0	0	520	14	0	0	0	0	579	4	0	0	0	0	504	
1	0	0	0	0	505	15	0	0	0	0	431	5	0	0	0	0	503	
2	0	0	0	0	494	0	0	0	0	0	548	6	0	0	0	0	513	
3	0	0	0	0	517	1	0	0	0	0	486	7	0	0	0	0	504	
4	0	0	0	0	483	2	0	0	0	0	476	8	0	0	0	0	504	
5	0	0	0	0	513	3	0	0	0	0	578	9	0	0	0	0	508	
6	0	0	0	0	511	4	0	0	0	0	428	10	0	0	0	0	519	
7	0	0	0	0	491	5	0	0	0	0	554	11	0	0	0	0	514	
8	0	0	0	0	494	6	0	0	0	0	476	12	0	0	0	0	459	
9	0	0	0	0	516	7	0	0	0	0	487	13	0	0	0	0	517	
10	0	0	0	0	500	8	0	0	0	0	581	14	0	0	0	0	508	
11	0	0	0	0	509	9	0	0	0	0	425	15	0	0	0	0	524	
12	0	0	0	0	484	10	0	0	0	0	554	0	0	0	0	0	519	
13	0	0	0	0	533	11	0	0	0	0	483	1	0	0	0	0	509	
14	0	0	0	0	500	12	0	0	0	0	501	2	0	0	0	0	509	
15	0	0	0	0	522	13	0	0	0	0	582	3	0	0	0	0	507	
0	0	0	0	0	508	14	0	0	0	0	423	4	0	0	0	0	511	
1	0	0	0	0	506	15	0	0	0	0	553	5	0	0	0	0	510	
2	0	0	0	0	515	0	0	0	0	0	478	6	0	0	0	0	493	
3	0	0	0	0	505	1	0	0	0	0	486	7	0	0	0	0	514	
4	0	0	0	0	504	2	0	0	0	0	578	8	0	0	0	0	502	
5	0	0	0	0	519	3	0	0	0	0	423	9	0	0	0	0	515	
6	0	0	0	0	487	4	0	0	0	0	554	10	0	0	0	0	514	
7	0	0	0	0	527	5	0	0	0	0	478	11	0	0	0	0	520	
8	0	0	0	0	463	6	0	0	0	0	484	12	0	0	0	0	519	
9	0	0	0	0	520	7	0	0	0	0	578	13	0	0	0	0	509	
10	0	0	0	0	483	8	0	0	0	0	425	14	0	0	0	0	508	
11	0	0	0	0	484	9	0	0	0	0	555	15	0	0	0	0	511	
12	0	0	0	0	536	10	0	0	0	0	478	0	0	0	0	0	501	
13	0	0	0	0	483	11	0	0	0	0	487	1	0	0	0	0	523	
14	0	0	0	0	516	12	0	0	0	0	578	2	0	0	0	0	504	
15	0	0	0	0	509	13	0	0	0	0	424	3	0	0	0	0	511	
0	0	0	0	0	503	14	0	0	0	0	559	4	0	0	0	0	514	
1	0	0	0	0	521	15	0	0	0	0	487	5	0	0	0	0	500	
2	0	0	0	0	499	0	0	0	0	0	491	6	0	0	0	0	517	
3	0	0	0	0	514	1	0	0	0	0	575	7	0	0	0	0	496	
4	0	0	0	0	518	2	0	0	0	0	425	8	0	0	0	0	513	
5	0	0	0	0	488	3	0	0	0	0	557	9	0	0	0	0	514	
6	0	0	0	0	511	4	0	0	0	0	468	10	0	0	0	0	492	
7	0	0	0	0	503	5	0	0	0	0	488	11	0	0	0	0	515	
8	0	0	0	0	509	6	0	0	0	0	580	12	0	0	0	0	501	
9	0	0	0	0	535	7	0	0	0	0	425	13	0	0	0	0	508	
10	0	0	0	0	514	8	0	0	0	0	555	14	0	0	0	0	499	
11	0	0	0	0	509	9	0	0	0	0	483	15	0	0	0	0	500	
12	0	0	0	0	532	10	0	0	0	0	489	0	0	0	0	0	518	
13	0	0	0	0	532	11	0	0	0	0	577	1	0	0	0	0	504	
14	0	0	0	0	518	12	0	0	0	0	399	2	0	0	0	0	515	
15	0	0	0	0	503	13	0	0	0	0	564	3	0	0	0	0	514	
0	0	0	0	0	519	14	0	0	0	0	477	4	0	0	0	0	501	
1	0	0	0	0	501	15	0	0	0	0	491	5	0	0	0	0	515	
2	0	0	0	0	501	0	0	0	0	0	574	6	0	0	0	0	497	
3	0	0	0	0	488	1	0	0	0	0	421	7	0	0	0	0	516	
4	0	0	0	0	500	2	0	0	0	0	556	8	0	0	0	0	512	
5	0	0	0	0	502	3	0	0	0	0	471	9	0	0	0	0	508	
6	0	0	0	0	491	4	0	0	0	0	504	10	0	0	0	0	500	
7	0	0	0	0	528	5	0	0	0	0	574	11	0	0	0	0	509	
8	0	0	0	0	508	6	0	0	0	0	419	12	0	0	0	0	518	
9	0	0	0	0	507	7	0	0	0	0	564	13	0	0	0	0	516	
10	0	0	0	0	508	8	0	0	0	0	469	14	0	0	0	0	501	
11	0	0	0	0	499	9	0	0	0	0	493	15	0	0	0	0	519	
12	0	0	0	0	506	10	0	0	0	0	576	0	0	0	0	0	486	
13	0	0	0	0	513	11	0	0	0	0	419	1	0	0	0	0	515	
14	0	0	0	0	505	12	0	0	0	0	566	2	0	0	0	0	507	
15	0	0	0	0	496	13	0	0	0	0	472	3	0	0	0	0	517	
0	0	0	0	0	509	14	0	0	0	0	499	4	0	0	0	0	495	
1	0	0	0	0	516	15	0	0	0	0	575	5	0	0	0	0	527	
2	0	0	0	0	497	0	0	0	0	0	419	6	0	0	0	0	508	
3	0	0	0	0	513	1	0	0	0	0	555	7	0	0	0	0	512	
4	0	0	0	0	516	2	0	0	0	0	474	8	0	0	0	0	487	
5	0	0	0	0	500	3	0	0	0	0	497	9	0	0	0	0	512	
6	0	0	0	0	495	4	0	0	0	0	570	10	0	0	0	0	504	
7	0	0	0	0	508	5	0	0	0	0	422	11	0	0	0	0	513	
8	0	0	0	0	504	6	0	0	0	0	550	12	0	0	0	0	503	
9	0	0	0	0	506	7	0	0	0	0	454	13	0	0	0	0	496	
10	0	0	0	0	507	8	0	0	0	0	486	14	0	0	0	0	509	
11	0	0	0	0	500	9	0	0	0	0	567	15	0	0	0	0	506	
12	0	0	0	0	513	10	0	0	0	0	418	0	0	0	0	0	517	
13	0	0	0	0	494	11	0	0	0	0	559	1	0	0	0	0	522	
14	0	0	0	0	504	12	0	0	0	0	474	2	0	0	0	0	499	
15	0	0	0	0	498	13	0	0	0	0	506	3	0	0	0	0	506	
0	0	0	0	0	529	14	0	0	0	0	574	4	0	0	0	0	513	
1	0	0	0	0	504	15	0	0	0	0	422	5	0	0	0	0	505	
2	0	0	0	0	507	0	0	0	0	0	547	6	0	0	0	0	511	
3	0	0	0	0	511	1	0	0	0	0	466	7	0	0	0	0	500	
4	0	0	0	0	505	2	0	0	0	0	497	8	0	0	0	0	514	
5	0	0	0	0	510	3	0	0	0	0	571	9	0	0	0	0	498	
6	0	0	0	0	504	4	0	0	0	0	414	10	0	0	0	0	514	
7	0	0	0	0	512	5	0	0	0	0	555	11	0	0	0	0	515	
8	0	0	0	0	503	6	0	0	0	0	470	12	0	0	0	0	504	
9	0	0	0	0	506	7	0	0	0	0	512	13	0	0	0	0	514	
10	0	0	0	0	508	8	0	0	0	0	559	14	0	0	0	0	507	
11	0	0	0	0	508	9	0	0	0	0	422	15	0	0	0	0	503	
12	0	0	0	0	509	10	0	0	0	0	564	0	0	0	0	0	502	
13	0	0	0	0	505	11	0	0	0	0	473	1	0	0	0	0	517	
14	0	0	0	0	514	12	0	0	0	0	502	2	0	0	0	0	522	
15	0	0	0	0	505	13	0	0	0	0	561	3	0	0	0	0	512	
0	0	0	0	0	507	14	0	0	0	0	422	4	0	0	0	0	496	
1	0	0	0	0	505	15	0	0	0	0	563	5	0	0	0	0	517	
2	0	0	0	0	485	0	0	0	0	0	470	6	0	0	0	0	477	
3	0	0	0	0	514	1	0	0	0	0	500	7	0	0	0	0	513	
4	0	0	0	0	513	2	0	0	0	0	566	8	0	0	0	0	505	
5	0	0	0	0	496	3	0	0	0	0	422	9	0	0	0	0	509	
6	0	0	0	0	510	4	0	0	0	0	545	10	0	0	0	0	512	
7	0	0	0	0	510	5	0	0	0	0	475	11	0	0	0	0	491	
8	0	0	0	0	502	6	0	0	0	0	500	12	0	0	0	0	527	
9	0	0	0	0	510	7	0	0	0	0	562	13	0	0	0	0	522	
10	0	0	0	0	503	8	0	0	0	0	421	14	0	0	0	0	497	
11	0	0	0	0	502	9	0	0	0	0	556	15	0	0	0	0	519	
12	0	0	0	0	515	10	0	0	0	0	472	0	0	0	0	0	512	
13	0	0	0	0	504	11	0	0	0	0	519	1	0	0	0	0	508	
14	0	0	0	0	527	12	0	0	0	0	547	2	0	0	0	0	509	
15	0	0	0	0	510	13	0	0	0	0	424	3	0	0	0	0	512	
0	0	0	0	0	502	14	0	0	0	0	571	4	0	0	0	0	505	
1	0	0	0	0	515	15	0	0	0	0	465	5	0	0	0	0	510	
2	0	0	0	0	499	0	0	0	0	0	507	6	0	0	0	0	511	
3	0	0	0	0	514	1	0	0	0	0	555	7	0	0	0	0	508	
4	0	0	0	0	500	2	0	0	0	0	415	8	0	0	0	0	513	
5	0	0	0	0	505	3	0	0	0	0	565	9	0	0	0	0	507	
6	0	0	0	0	503	4	0	0	0	0	467	10	0	0	0	0	504	
7	0	0	0	0	494	5	0	0	0	0	507	11	0	0	0	0	512	
8	0	0	0	0	508	6	0	0	0	0	553	12	0	0	0	0	510	
9	0	0	0	0	506	7	0	0	0	0	415	13	0	0	0	0	518	
10	0	0	0	0	516	8	0	0	0	0	585	14	0	0	0	0	512	
11	0	0	0	0	525	9	0	0	0	0	429	15	0	0	0	0	506	
12	0	0	0	0	500	10	0	0	0	0	515	0	0	0	0	0	521	
13	0	0	0	0	512	11	0	0	0	0	556	1	0	0	0	0	502	
14	0	0	0	0	501	12	0	0	0	0	420	2	0	0	0	0	505	
15	0	0	0	0	504	13	0	0	0	0	574	3	0	0	0	0	527	
0	0	0	0	0	526	14	0	0	0	0	466	4	0	0	0	0	509	
1	0	0	0	0	500	15	0	0	0	0	504	5	0	0	0	0	503	
2	0	0	0	0	515	0	0	0	0	0	560	6	0	0	0	0	507	
3	0	0	0	0	513	1	0	0	0	0	419	7	0	0	0	0	513	
4	0	0	0	0	496	2	0	0	0	0	561	8	0	0	0	0	488	
5	0	0	0	0	528	3	0	0	0	0	455	9	0	0	0	0	509	
6	0	0	0	0	494	4	0	0	0	0	500	10	0	0	0	0	515	
7	0	0	0	0	524	5	0	0	0	0	541	11	0	0	0	0	495	
8	0	0	0	0	500	6	0	0	0	0	420	12	0	0	0	0	507	
9	0	0	0	0	503	7	0	0	0	0	573	13	0	0	0	0	515	
10	0	0	0	0	516	8	0	0	0	0	463	14	0	0	0	0	501	
11	0	0	0	0	485	9	0	0	0	0	511	15	0	0	0	0	510	
12	0	0	0	0	509	10	0	0	0	0	557	0	0	0	0	0	543	
13	0	0	0	0	520	11	0	0	0	0	420	1	0	0	0	0	475	
14	0	0	0	0	495	12	0	0	0	0	574	2	0	0	0	0	520	
15	0	0	0	0	518	13	0	0	0	0	461	3	0	0	0	0	513	
0	0	0	0	0	483	14	0	0	0	0	516	4	0	0	0	0	461	
1	0	0	0	0	518	15	0	0	0	0	549	5	0	0	0	0	527	
2	0	0	0	0	506	0	0	0	0	0	417	6	0	0	0	0	519	
3	0	0	0	0	492	1	0	0	0	0	578	7	0	0	0	0	480	
4	0	0	0	0	511	2	0	0	0	0	463	8	0	0	0	0	508	
5	0	0	0	0	486	3	0	0	0	0	519	9	0	0	0	0	469	
6	0	0	0	0	505	4	0	0	0	0	544	10	0	0	0	0	527	
7	0	0	0	0	481	5	0	0	0	0	421	11	0	0	0	0	537	
8	0	0	0	0	508	6	0	0	0	0	572	12	0	0	0	0	518	
9	0	0	0	0	543	7	0	0	0	0	463	13	0	0	0	0	524	
10	0	0	0	0	486	8	0	0	0	0	519	14	0	0	0	0	498	
11	0	0	0	0	519	9	0	0	0	0	544	15	0	0	0	0	514	
12	0	0	0	0	505	10	0	0	0	0	425	0	0	0	0	0	520	
13	0	0	0	0	513	11	0	0	0	0	573	1	0	0	0	0	523	
14	0	0	0	0	519	12	0	0	0	0	462	2	0	0	0	0	515	
15	0	0	0	0	491	13	0	0	0	0	515	3	0	0	0	0	523	
0	0	0	0	0	511	14	0	0	0	0	545	4	0	0	0	0	507	
1	0	0	0	0	503	15	0	0	0	0	425	5	0	0	0	0	516	
2	0	0	0	0	499	0	0	0	0	0	565	6	0	0	0	0	524	
3	0	0	0	0	511	1	0	0	0	0	466	7	0	0	0	0	463	
4	0	0	0	0	516	2	0	0	0	0	510	8	0	0	0	0	519	
5	0	0	0	0	503	3	0	0	0	0	543	9	0	0	0	0	507	
6	0	0	0	0	496	4	0	0	0	0	432	10	0	0	0	0	510	
7	0	0	0	0	526	5	0	0	0	0	564	11	0	0	0	0	505	
8	0	0	0	0	508	6	0	0	0	0	468	12	0	0	0	0	496	
9	0	0	0	0	508	7	0	0	0	0	515	13	0	0	0	0	523	
10	0	0	0	0	525	8	0	0	0	0	539	14	0	0	0	0	498	
11	0	0	0	0	507	9	0	0	0	0	434	15	0	0	0	0	512	
12	0	0	0	0	504	10	0	0	0	0	562	0	0	0	0	0	510	
13	0	0	0	0	507	11	0	0	0	0	468	1	0	0	0	0	496	
14	0	0	0	0	484	12	0	0	0	0	513	2	0	0	0	0	521	
15	0	0	0	0	511	13	0	0	0	0	533	3	0	0	0	0	503	
0	0	0	0	0	512	14	0	0	0	0	436	4	0	0	0	0	513	
1	0	0	0	0	509	15	0	0	0	0	559	5	0	0	0	0	495	
2	0	0	0	0	508	0	0	0	0	0	467	6	0	0	0	0	478	
3	0	0	0	0	499	1	0	0	0	0	516	7	0	0	0	0	539	
4	0	0	0	0	502	2	0	0	0	0	535	8	0	0	0	0	505	
5	0	0	0	0	504	3	0	0	0	0	432	9	0	0	0	0	505	
6	0	0	0	0	510	4	0	0	0	0	565	10	0	0	0	0	507	
7	0	0	0	0	494	5	0	0	0	0	466	11	0	0	0	0	512	
8	0	0	0	0	503	6	0	0	0	0	513	12	0	0	0	0	534	
9	0	0	0	0	510	7	0	0	0	0	536	13	0	0	0	0	532	
10	0	0	0	0	520	8	0	0	0	0	429	14	0	0	0	0	519	
11	0	0	0	0	517	9	0	0	0	0	567	15	0	0	0	0	508	
12	0	0	0	0	519	10	0	0	0	0	467	0	0	0	0	0	507	
13	0	0	0	0	510	11	0	0	0	0	526	1	0	0	0	0	505	
14	0	0	0	0	500	12	0	0	0	0	536	2	0	0	0	0	505	
15	0	0	0	0	509	13	0	0	0	0	432	3	0	0	0	0	516	
0	0	0	0	0	512	14	0	0	0	0	558	4	0	0	0	0	511	
1	0	0	0	0	515	15	0	0	0	0	450	5	0	0	0	0	500	
2	0	0	0	0	508	0	0	0	0	0	520	6	0	0	0	0	503	
3	0	0	0	0	502	1	0	0	0	0	539	7	0	0	0	0	509	
4	0	0	0	0	515	2	0	0	0	0	432	8	0	0	0	0	526	
5	0	0	0	0	508	3	0	0	0	0	551	9	0	0	0	0	486	
6	0	0	0	0	505	4	0	0	0	0	467	10	0	0	0	0	507	
7	0	0	0	0	512	5	0	0	0	0	515	11	0	0	0	0	527	
8	0	0	0	0	503	6	0	0	0	0	531	12	0	0	0	0	481	
9	0	0	0	0	513	7	0	0	0	0	467	13	0	0	0	0	503	
10	0	0	0	0	507	8	0	0	0	0	582	14	0	0	0	0	473	
11	0	0	0	0	514	9	0	0	0	0	474	15	0	0	0	0	495	
12	0	0	0	0	507	10	0	0	0	0	523	0	0	0	0	0	496	
13	0	0	0	0	515	11	0	0	0	0	537	1	0	0	0	0	516	
14	0	0	0	0	511	12	0	0	0	0	435	2	0	0	0	0	500	
15	0	0	0	0	503	13	0	0	0	0	564	3	0	0	0	0	521	
0	0	0	0	0	512	14	0	0	0	0	467	4	0	0	0	0	502	
1	0	0	0	0	499	15	0	0	0	0	552	5	0	0	0	0	528	
2	0	0	0	0	510	0	0	0	0	0	549	6	0	0	0	0	508	
3	0	0	0	0	504	1	0	0	0	0	423	7	0	0	0	0	508	
4	0	0	0	0	498	2	0	0	0	0	545	8	0	0	0	0	513	
5	0	0	0	0	523	3	0	0	0	0	455	9	0	0	0	0	511	
6	0	0	0	0	495	4	0	0	0	0	518	10	0	0	0	0	493	
7	0	0	0	0	498	5	0	0	0	0	531	11	0	0	0	0	512	
8	0	0	0	0	504	6	0	0	0	0	434	12	0	0	0	0	506	
9	0	0	0	0	514	7	0	0	0	0	551	13	0	0	0	0	517	
10	0	0	0	0	508	8	0	0	0	0	468	14	0	0	0	0	467	
11	0	0	0	0	496	9	0	0	0	0	519	15	0	0	0	0	529	
12	0	0	0	0	521	10	0	0	0	0	541	0	0	0	0	0	496	
13	0	0	0	0	505	11	0	0	0	0	409	1	0	0	0	0	509	
14	0	0	0	0	510	12	0	0	0	0	578	2	0	0	0	0	504	
15	0	0	0	0	514	13	0	0	0	0	455	3	0	0	0	0	510	
0	0	0	0	0	481	14	0	0	0	0	515	4	0	0	0	0	523	
1	0	0	0	0	518	15	0	0	0	0	523	5	0	0	0	0	509	
2	0	0	0	0	503	0	0	0	0	0	429	6	0	0	0	0	508	
3	0	0	0	0	509	1	0	0	0	0	573	7	0	0	0	0	516	
4	0	0	0	0	519	2	0	0	0	0	461	8	0	0	0	0	488	
5	0	0	0	0	504	3	0	0	0	0	517	9	0	0	0	0	522	
6	0	0	0	0	519	4	0	0	0	0	521	10	0	0	0	0	504	
7	0	0	0	0	492	5	0	0	0	0	436	11	0	0	0	0	517	
8	0	0	0	0	513	6	0	0	0	0	565	12	0	0	0	0	518	
9	0	0	0	0	504	7	0	0	0	0	466	13	0	0	0	0	505	
10	0	0	0	0	506	8	0	0	0	0	535	14	0	0	0	0	512	
11	0	0	0	0	529	9	0	0	0	0	499	15	0	0	0	0	506	
12	0	0	0	0	521	10	0	0	0	0	447	0	0	0	0	0	510	
13	0	0	0	0	517	11	0	0	0	0	551	1	0	0	0	0	512	
14	0	0	0	0	513	12	0	0	0	0	485	2	0	0	0	0	502	
15	0	0	0	0	505	13	0	0	0	0	519	3	0	0	0	0	519	
0	0	0	0	0	513	14	0	0	0	0	520	4	0	0	0	0	503	
1	0	0	0	0	512	15	0	0	0	0	461	5	0	0	0	0	513	
2	0	0	0	0	511	0	0	0	0	0	549	6	0	0	0	0	502	
3	0	0	0	0	526	1	0	0	0	0	477	7	0	0	0	0	505	
4	0	0	0	0	509	2	0	0	0	0	517	8	0	0	0	0	511	
5	0	0	0	0	512	3	0	0	0	0	521	9	0	0	0	0	503	
6	0	0	0	0	507	4	0	0	0	0	455	10	0	0	0	0	510	
7	0	0	0	0	510	5	0	0	0	0	546	11	0	0	0	0	515	
8	0	0	0	0	508	6	0	0	0	0	466	12	0	0	0	0	504	
9	0	0	0	0	505	7	0	0	0	0	512	13	0	0	0	0	523	
10	0	0	0	0	502	8	0	0	0	0	499	14	0	0	0	0	494	
11	0	0	0	0	507	9	0	0	0	0	459	15	0	0	0	0	509	
12	0	0	0	0	511	10	0	0	0	0	558	0	0	0	0	0	505	
13	0	0	0	0	524	11	0	0	0	0	473	1	0	0	0	0	510	
14	0	0	0	0	491	12	0	0	0	0	519	2	0	0	0	0	528	
15	0	0	0	0	515	13	0	0	0	0	518	3	0	0	0	0	507	
0	0	0	0	0	503	14	0	0	0	0	466	4	0	0	0	0	513	
1	0	0	0	0	502	15	0	0	0	0	558	5	0	0	0	0	513	
2	0	0	0	0	514	0	0	0	0	0	479	6	0	0	0	0	503	
3	0	0	0	0	502	1	0	0	0	0	518	7	0	0	0	0	518	
4	0	0	0	0	506	2	0	0	0	0	522	8	0	0	0	0	504	
5	0	0	0	0	502	3	0	0	0	0	432	9	0	0	0	0	509	
6	0	0	0	0	504	4	0	0	0	0	576	10	0	0	0	0	512	
7	0	0	0	0	514	5	0	0	0	0	463	11	0	0	0	0	504	
8	0	0	0	0	492	6	0	0	0	0	532	12	0	0	0	0	509	
9	0	0	0	0	504	7	0	0	0	0	518	13	0	0	0	0	517	
10	0	0	0	0	516	8	0	0	0	0	435	14	0	0	0	0	505	
11	0	0	0	0	509	9	0	0	0	0	583	15	0	0	0	0	515	
12	0	0	0	0	515	10	0	0	0	0	450	0	0	0	0	0	496	
13	0	0	0	0	511	11	0	0	0	0	508	1	0	0	0	0	524	
14	0	0	0	0	511	12	0	0	0	0	512	2	0	0	0	0	498	
15	0	0	0	0	499	13	0	0	0	0	425	3	0	0	0	0	506	
0	0	0	0	0	511	14	0	0	0	0	588	4	0	0	0	0	510	
1	0	0	0	0	502	15	0	0	0	0	446	5	0	0	0	0	489	
2	0	0	0	0	468	0	0	0	0	0	537	6	0	0	0	0	477	
3	0	0	0	0	505	1	0	0	0	0	515	7	0	0	0	0	507	
4	0	0	0	0	501	2	0	0	0	0	448	8	0	0	0	0	505	
5	0	0	0	0	487	3	0	0	0	0	570	9	0	0	0	0	505	
6	0	0	0	0	519	4	0	0	0	0	447	10	0	0	0	0	504	
7	0	0	0	0	512	5	0	0	0	0	528	11	0	0	0	0	532	
8	0	0	0	0	506	6	0	0	0	0	517	12	0	0	0	0	511	
9	0	0	0	0	493	7	0	0	0	0	438	13	0	0	0	0	515	
10	0	0	0	0	490	8	0	0	0	0	585	14	0	0	0	0	531	
11	0	0	0	0	527	9	0	0	0	0	455	15	0	0	0	0	519	
12	0	0	0	0	509	10	0	0	0	0	525	0	0	0	0	0	526	
13	0	0	0	0	489	11	0	0	0	0	507	1	0	0	0	0	488	
14	0	0	0	0	508	12	0	0	0	0	440	2	0	0	0	0	516	
15	0	0	0	0	478	13	0	0	0	0	589	3	0	0	0	0	504	
0	0	0	0	0	503	14	0	0	0	0	432	4	0	0	0	0	475	
1	0	0	0	0	512	15	0	0	0	0	533	5	0	0	0	0	534	
2	0	0	0	0	486	0	0	0	0	0	499	6	0	0	0	0	495	
3	0	0	0	0	518	1	0	0	0	0	443	7	0	0	0	0	526	
4	0	0	0	0	484	2	0	0	0	0	582	8	0	0	0	0	538	
5	0	0	0	0	514	3	0	0	0	0	447	9	0	0	0	0	487	
6	0	0	0	0	509	4	0	0	0	0	532	10	0	0	0	0	529	
7	0	0	0	0	491	5	0	0	0	0	521	11	0	0	0	0	501	
8	0	0	0	0	536	6	0	0	0	0	445	12	0	0	0	0	461	
9	0	0	0	0	567	7	0	0	0	0	584	13	0	0	0	0	498	
10	0	0	0	0	399	8	0	0	0	0	448	14	0	0	0	0	521	
11	0	0	0	0	561	9	0	0	0	0	534	15	0	0	0	0	520	
12	0	0	0	0	508	10	0	0	0	0	504	0	0	0	0	0	394	
13	0	0	0	0	526	11	0	0	0	0	446	1	0	0	0	0	486	
14	0	0	0	0	410	12	0	0	0	0	585	2	0	0	0	0	509	
15	0	0	0	0	578	13	0	0	0	0	443	3	0	0	0	0	566	
0	0	0	0	0	412	14	0	0	0	0	540	4	0	0	0	0	536	
1	0	0	0	0	569	15	0	0	0	0	506	5	0	0	0	0	491	
2	0	0	0	0	479	0	0	0	0	0	447	6	0	0	0	0	493	
3	0	0	0	0	553	1	0	0	0	0	584	7	0	0	0	0	505	
4	0	0	0	0	479	2	0	0	0	0	447	8	0	0	0	0	574	
5	0	0	0	0	517	3	0	0	0	0	533	9	0	0	0	0	558	
6	0	0	0	0	551	4	0	0	0	0	504	10	0	0	0	0	466	
7	0	0	0	0	547	5	0	0	0	0	446	11	0	0	0	0	424	
8	0	0	0	0	439	6	0	0	0	0	583	12	0	0	0	0	487	
9	0	0	0	0	415	7	0	0	0	0	448	13	0	0	0	0	371	
10	0	0	0	0	511	8	0	0	0	0	536	14	0	0	0	0	627	
11	0	0	0	0	519	9	0	0	0	0	499	15	0	0	0	0	450	
12	0	0	0	0	510	10	0	0	0	0	449	0	0	0	0	0	495	
13	0	0	0	0	436	11	0	0	0	0	586	1	0	0	0	0	430	
14	0	0	0	0	478	12	0	0	0	0	449	2	0	0	0	0	578	
15	0	0	0	0	441	13	0	0	0	0	533	3	0	0	0	0	431	
0	0	0	0	0	397	14	0	0	0	0	499	4	0	0	0	0	515	
1	0	0	0	0	509	15	0	0	0	0	455	5	0	0	0	0	558	
2	0	0	0	0	408	0	0	0	0	0	581	6	0	0	0	0	501	
3	0	0	0	0	628	1	0	0	0	0	450	7	0	0	0	0	476	
4	0	0	0	0	439	2	0	0	0	0	537	8	0	0	0	0	593	
5	0	0	0	0	524	3	0	0	0	0	502	9	0	0	0	0	502	
6	0	0	0	0	457	4	0	0	0	0	453	10	0	0	0	0	443	
7	0	0	0	0	503	5	0	0	0	0	582	11	0	0	0	0	582	
8	0	0	0	0	491	6	0	0	0	0	441	12	0	0	0	0	518	
9	0	0	0	0	456	7	0	0	0	0	535	13	0	0	0	0	593	
10	0	0	0	0	542	8	0	0	0	0	495	14	0	0	0	0	478	
11	0	0	0	0	552	9	0	0	0	0	457	15	0	0	0	0	521	
12	0	0	0	0	617	10	0	0	0	0	585	0	0	0	0	0	519	
13	0	0	0	0	472	11	0	0	0	0	440	1	0	0	0	0	531	
14	0	0	0	0	595	12	0	0	0	0	554	2	0	0	0	0	538	
15	0	0	0	0	309	13	0	0	0	0	502	3	0	0	0	0	562	
0	0	0	0	0	566	14	0	0	0	0	381	4	0	0	0	0	527	
1	0	0	0	0	295	15	0	0	0	0	592	5	0	0	0	0	502	
2	0	0	0	0	470	0	0	0	0	0	451	6	0	0	0	0	368	
3	0	0	0	0	532	1	0	0	0	0	532	7	0	0	0	0	570	
4	0	0	0	0	526	2	0	0	0	0	497	8	0	0	0	0	481	
5	0	0	0	0	549	3	0	0	0	0	451	9	0	0	0	0	412	
6	0	0	0	0	559	4	0	0	0	0	595	10	0	0	0	0	567	
7	0	0	0	0	623	5	0	0	0	0	454	11	0	0	0	0	482	
8	0	0	0	0	609	6	0	0	0	0	490	12	0	0	0	0	520	
9	0	0	0	0	447	7	0	0	0	0	524	13	0	0	0	0	489	
10	0	0	0	0	372	8	0	0	0	0	461	14	0	0	0	0	390	
11	0	0	0	0	679	9	0	0	0	0	577	15	0	0	0	0	604	
12	0	0	0	0	495	10	0	0	0	0	440	0	0	0	0	0	493	
13	0	0	0	0	535	11	0	0	0	0	567	1	0	0	0	0	486	
14	0	0	0	0	317	12	0	0	0	0	501	2	0	0	0	0	436	
15	0	0	0	0	600	13	0	0	0	0	418	3	0	0	0	0	602	
0	0	0	0	0	428	14	0	0	0	0	604	4	0	0	0	0	503	
1	0	0	0	0	556	15	0	0	0	0	520	5	0	0	0	0	530	
2	0	0	0	0	384	0	0	0	0	0	471	6	0	0	0	0	399	
3	0	0	0	0	306	1	0	0	0	0	541	7	0	0	0	0	521	
4	0	0	0	0	562	2	0	0	0	0	458	8	0	0	0	0	539	
5	0	0	0	0	415	3	0	0	0	0	634	9	0	0	0	0	433	
6	0	0	0	0	551	4	0	0	0	0	430	10	0	0	0	0	580	
7	0	0	0	0	450	5	0	0	0	0	578	11	0	0	0	0	636	
8	0	0	0	0	546	6	0	0	0	0	520	12	0	0	0	0	492	
9	0	0	0	0	308	7	0	0	0	0	441	13	0	0	0	0	256	
10	0	0	0	0	559	8	0	0	0	0	580	14	0	0	0	0	555	
11	0	0	0	0	468	9	0	0	0	0	441	15	0	0	0	0	421	
12	0	0	0	0	525	10	0	0	0	0	491	0	0	0	0	0	552	
13	0	0	0	0	550	11	0	0	0	0	630	1	0	0	0	0	529	
14	0	0	0	0	591	12	0	0	0	0	416	2	0	0	0	0	515	
15	0	0	0	0	492	13	0	0	0	0	623	3	0	0	0	0	575	
0	0	0	0	0	588	14	0	0	0	0	467	4	0	0	0	0	617	
1	0	0	0	0	440	15	0	0	0	0	517	5	0	0	0	0	505	
2	0	0	0	0	641	0	0	0	0	0	512	6	0	0	0	0	307	
3	0	0	0	0	523	1	0	0	0	0	280	7	0	0	0	0	517	
4	0	0	0	0	512	2	0	0	0	0	548	8	0	0	0	0	506	
5	0	0	0	0	546	3	0	0	0	0	455	9	0	0	0	0	500	
6	0	0	0	0	521	4	0	0	0	0	552	10	0	0	0	0	437	
7	0	0	0	0	619	5	0	0	0	0	488	11	0	0	0	0	668	
8	0	0	0	0	467	6	0	0	0	0	512	12	0	0	0	0	540	
9	0	0	0	0	559	7	0	0	0	0	606	13	0	0	0	0	505	
10	0	0	0	0	517	8	0	0	0	0	344	14	0	0	0	0	441	
11	0	0	0	0	542	9	0	0	0	0	454	15	0	0	0	0	566	
12	0	0	0	0	552	10	0	0	0	0	482	0	0	0	0	0	492	
13	0	0	0	0	567	11	0	0	0	0	680	1	0	0	0	0	575	
14	0	0	0	0	476	12	0	0	0	0	523	2	0	0	0	0	479	
15	0	0	0	0	451	13	0	0	0	0	594	3	0	0	0	0	551	
0	0	0	0	0	543	14	0	0	0	0	427	4	0	0	0	0	490	
1	0	0	0	0	532	15	0	0	0	0	576	5	0	0	0	0	610	
2	0	0	0	0	552	0	0	0	0	0	401	6	0	0	0	0	616	
3	0	0	0	0	487	1	0	0	0	0	513	7	0	0	0	0	571	
4	0	0	0	0	561	2	0	0	0	0	395	8	0	0	0	0	489	
5	0	0	0	0	473	3	0	0	0	0	572	9	0	0	0	0	441	
6	0	0	0	0	561	4	0	0	0	0	349	10	0	0	0	0	552	
7	0	0	0	0	499	5	0	0	0	0	530	11	0	0	0	0	512	
8	0	0	0	0	632	6	0	0	0	0	556	12	0	0	0	0	567	
9	0	0	0	0	510	7	0	0	0	0	334	13	0	0	0	0	354	
10	0	0	0	0	569	8	0	0	0	0	540	14	0	0	0	0	519	
11	0	0	0	0	391	9	0	0	0	0	531	15	0	0	0	0	518	
12	0	0	0	0	480	10	0	0	0	0	558	0	0	0	0	0	304	
13	0	0	0	0	541	11	0	0	0	0	612	1	0	0	0	0	553	
14	0	0	0	0	459	12	0	0	0	0	413	2	0	0	0	0	591	
15	0	0	0	0	479	13	0	0	0	0	544	3	0	0	0	0	521	
0	0	0	0	0	454	14	0	0	0	0	744	4	0	0	0	0	614	
1	0	0	0	0	586	15	0	0	0	0	396	5	0	0	0	0	460	
2	0	0	0	0	398	0	0	0	0	0	633	6	0	0	0	0	584	
3	0	0	0	0	592	1	0	0	0	0	359	7	0	0	0	0	631	
4	0	0	0	0	371	2	0	0	0	0	537	8	0	0	0	0	520	
5	0	0	0	0	491	3	0	0	0	0	646	9	0	0	0	0	535	
6	0	0	0	0	480	4	0	0	0	0	352	10	0	0	0	0	419	
7	0	0	0	0	583	5	0	0	0	0	581	11	0	0	0	0	724	
8	0	0	0	0	495	6	0	0	0	0	505	12	0	0	0	0	488	
9	0	0	0	0	516	7	0	0	0	0	763	13	0	0	0	0	603	
10	0	0	0	0	431	8	0	0	0	0	418	14	0	0	0	0	492	
11	0	0	0	0	393	9	0	0	0	0	462	15	0	0	0	0	480	
12	0	0	0	0	528	10	0	0	0	0	577	0	0	0	0	0	316	
13	0	0	0	0	608	11	0	0	0	0	374	1	0	0	0	0	520	
14	0	0	0	0	551	12	0	0	0	0	650	2	0	0	0	0	639	
15	0	0	0	0	560	13	0	0	0	0	496	3	0	0	0	0	582	
0	0	0	0	0	497	14	0	0	0	0	645	4	0	0	0	0	612	
1	0	0	0	0	519	15	0	0	0	0	600	5	0	0	0	0	402	
2	0	0	0	0	415	0	0	0	0	0	635	6	0	0	0	0	183	
3	0	0	0	0	487	1	0	0	0	0	487	7	0	0	0	0	634	
4	0	0	0	0	524	2	0	0	0	0	711	8	0	0	0	0	396	
5	0	0	0	0	576	3	0	0	0	0	427	9	0	0	0	0	508	
6	0	0	0	0	436	4	0	0	0	0	530	10	0	0	0	0	342	
7	0	0	0	0	564	5	0	0	0	0	271	11	0	0	0	0	666	
8	0	0	0	0	500	6	0	0	0	0	685	12	0	0	0	0	564	
9	0	0	0	0	455	7	0	0	0	0	446	13	0	0	0	0	454	
10	0	0	0	0	469	8	0	0	0	0	472	14	0	0	0	0	532	
11	0	0	0	0	645	9	0	0	0	0	479	15	0	0	0	0	774	
12	0	0	0	0	598	10	0	0	0	0	495	0	0	0	0	0	544	
13	0	0	0	0	592	11	0	0	0	0	556	1	0	0	0	0	416	
14	0	0	0	0	514	12	0	0	0	0	553	2	0	0	0	0	326	
15	0	0	0	0	516	13	0	0	0	0	439	3	0	0	0	0	317	
0	0	0	0	0	525	14	0	0	0	0	522	4	0	0	0	0	499	
1	0	0	0	0	447	15	0	0	0	0	469	5	0	0	0	0	500	
2	0	0	0	0	465	0	0	0	0	0	587	6	0	0	0	0	325	
3	0	0	0	0	611	1	0	0	0	0	481	7	0	0	0	0	686	
4	0	0	0	0	378	2	0	0	0	0	691	8	0	0	0	0	465	
5	0	0	0	0	712	3	0	0	0	0	511	9	0	0	0	0	379	
6	0	0	0	0	542	4	0	0	0	0	417	10	0	0	0	0	471	
7	0	0	0	0	551	5	0	0	0	0	546	11	0	0	0	0	633	
8	0	0	0	0	430	6	0	0	0	0	366	12	0	0	0	0	370	
9	0	0	0	0	581	7	0	0	0	0	425	13	0	0	0	0	564	
10	0	0	0	0	461	8	0	0	0	0	652	14	0	0	0	0	486	
11	0	0	0	0	563	9	0	0	0	0	409	15	0	0	0	0	654	
12	0	0	0	0	380	10	0	0	0	0	673	0	0	0	0	0	519	
13	0	0	0	0	632	11	0	0	0	0	424	1	0	0	0	0	435	
14	0	0	0	0	462	12	0	0	0	0	472	2	0	0	0	0	437	
15	0	0	0	0	378	13	0	0	0	0	610	3	0	0	0	0	248	
0	0	0	0	0	233	14	0	0	0	0	448	4	0	0	0	0	363	
1	0	0	0	0	579	15	0	0	0	0	440	5	0	0	0	0	620	
2	0	0	0	0	550	0	0	0	0	0	499	6	0	0	0	0	498	
3	0	0	0	0	602	1	0	0	0	0	279	7	0	0	0	0	418	
4	0	0	0	0	490	2	0	0	0	0	616	8	0	0	0	0	668	
5	0	0	0	0	615	3	0	0	0	0	275	9	0	0	0	0	665	
6	0	0	0	0	617	4	0	0	0	0	488	10	0	0	0	0	561	
7	0	0	0	0	516	5	0	0	0	0	415	11	0	0	0	0	436	
8	0	0	0	0	468	6	0	0	0	0	393	12	0	0	0	0	549	
9	0	0	0	0	434	7	0	0	0	0	389	13	0	0	0	0	568	
10	0	0	0	0	584	8	0	0	0	0	456	14	0	0	0	0	532	
11	0	0	0	0	452	9	0	0	0	0	790	15	0	0	0	0	559	
12	0	0	0	0	450	10	0	0	0	0	401	0	0	0	0	0	575	
13	0	0	0	0	457	11	0	0	0	0	440	1	0	0	0	0	358	
14	0	0	0	0	573	12	0	0	0	0	415	2	0	0	0	0	565	
15	0	0	0	0	446	13	0	0	0	0	465	3	0	0	0	0	678	
0	0	0	0	0	384	14	0	0	0	0	455	4	0	0	0	0	447	
1	0	0	0	0	472	15	0	0	0	0	521	5	0	0	0	0	574	
2	0	0	0	0	594	0	0	0	0	0	264	6	0	0	0	0	559	
3	0	0	0	0	615	1	0	0	0	0	625	7	0	0	0	0	505	
4	0	0	0	0	627	2	0	0	0	0	408	8	0	0	0	0	635	
5	0	0	0	0	529	3	0	0	0	0	553	9	0	0	0	0	575	
6	0	0	0	0	399	4	0	0	0	0	451	10	0	0	0	0	269	
7	0	0	0	0	539	5	0	0	0	0	545	11	0	0	0	0	401	
8	0	0	0	0	566	6	0	0	0	0	551	12	0	0	0	0	551	
9	0	0	0	0	481	7	0	0	0	0	511	13	0	0	0	0	552	
10	0	0	0	0	555	8	0	0	0	0	504	14	0	0	0	0	465	
11	0	0	0	0	455	9	0	0	0	0	566	15	0	0	0	0	321	
12	0	0	0	0	580	10	0	0	0	0	388	0	0	0	0	0	795	
13	0	0	0	0	412	11	0	0	0	0	507	1	0	0	0	0	513	
14	0	0	0	0	420	12	0	0	0	0	298	2	0	0	0	0	182	
15	0	0	0	0	533	13	0	0	0	0	460	3	0	0	0	0	334	
0	0	0	0	0	539	14	0	0	0	0	386	4	0	0	0	0	622	
1	0	0	0	0	507	15	0	0	0	0	525	5	0	0	0	0	426	
2	0	0	0	0	543	0	0	0	0	0	448	6	0	0	0	0	508	
3	0	0	0	0	495	1	0	0	0	0	466	7	0	0	0	0	416	
4	0	0	0	0	388	2	0	0	0	0	658	8	0	0	0	0	530	
5	0	0	0	0	476	3	0	0	0	0	621	9	0	0	0	0	463	
6	0	0	0	0	563	4	0	0	0	0	290	10	0	0	0	0	554	
7	0	0	0	0	582	5	0	0	0	0	651	11	0	0	0	0	426	
8	0	0	0	0	488	6	0	0	0	0	130	12	0	0	0	0	212	
9	0	0	0	0	566	7	0	0	0	0	494	13	0	0	0	0	657	
10	0	0	0	0	484	8	0	0	0	0	264	14	0	0	0	0	439	
11	0	0	0	0	544	9	0	0	0	0	445	15	0	0	0	0	567	
12	0	0	0	0	559	10	0	0	0	0	536	0	0	0	0	0	478	
13	0	0	0	0	499	11	0	0	0	0	711	1	0	0	0	0	505	
14	0	0	0	0	530	12	0	0	0	0	333	2	0	0	0	0	607	
15	0	0	0	0	539	13	0	0	0	0	625	3	0	0	0	0	542	
0	0	0	0	0	611	14	0	0	0	0	409	4	0	0	0	0	560	
1	0	0	0	0	449	15	0	0	0	0	636	5	0	0	0	0	504	
2	0	0	0	0	646	0	0	0	0	0	433	6	0	0	0	0	647	
3	0	0	0	0	503	1	0	0	0	0	630	7	0	0	0	0	491	
4	0	0	0	0	471	2	0	0	0	0	277	8	0	0	0	0	547	
5	0	0	0	0	476	3	0	0	0	0	415	9	0	0	0	0	510	
6	0	0	0	0	407	4	0	0	0	0	345	10	0	0	0	0	551	
7	0	0	0	0	594	5	0	0	0	0	360	11	0	0	0	0	521	
8	0	0	0	0	490	6	0	0	0	0	478	12	0	0	0	0	555	
9	0	0	0	0	419	7	0	0	0	0	394	13	0	0	0	0	408	
10	0	0	0	0	573	8	0	0	0	0	589	14	0	0	0	0	408	
11	0	0	0	0	455	9	0	0	0	0	524	15	0	0	0	0	527	
12	0	0	0	0	558	10	0	0	0	0	516	0	0	0	0	0	494	
13	0	0	0	0	582	11	0	0	0	0	467	1	0	0	0	0	532	
14	0	0	0	0	476	12	0	0	0	0	578	2	0	0	0	0	399	
15	0	0	0	0	462	13	0	0	0	0	543	3	0	0	0	0	601	
0	0	0	0	0	486	14	0	0	0	0	316	4	0	0	0	0	394	
1	0	0	0	0	564	15	0	0	0	0	334	5	0	0	0	0	498	
2	0	0	0	0	489	0	0	0	0	0	463	6	0	0	0	0	467	
3	0	0	0	0	622	1	0	0	0	0	354	7	0	0	0	0	525	
4	0	0	0	0	541	2	0	0	0	0	426	8	0	0	0	0	519	
5	0	0	0	0	617	3	0	0	0	0	565	9	0	0	0	0	547	
6	0	0	0	0	572	4	0	0	0	0	374	10	0	0	0	0	453	
7	0	0	0	0	563	5	0	0	0	0	613	11	0	0	0	0	546	
8	0	0	0	0	363	6	0	0	0	0	575	12	0	0	0	0	466	
9	0	0	0	0	462	7	0	0	0	0	684	13	0	0	0	0	518	
10	0	0	0	0	472	8	0	0	0	0	349	14	0	0	0	0	460	
11	0	0	0	0	593	9	0	0	0	0	484	15	0	0	0	0	516	
12	0	0	0	0	585	10	0	0	0	0	583	0	0	0	0	0	527	
13	0	0	0	0	496	11	0	0	0	0	339	1	0	0	0	0	422	
14	0	0	0	0	573	12	0	0	0	0	451	2	0	0	0	0	611	
15	0	0	0	0	490	13	0	0	0	0	263	3	0	0	0	0	496	
0	0	0	0	0	595	14	0	0	0	0	451	4	0	0	0	0	541	
1	0	0	0	0	539	15	0	0	0	0	585	5	0	0	0	0	494	
2	0	0	0	0	537	0	0	0	0	0	584	6	0	0	0	0	530	
3	0	0	0	0	355	1	0	0	0	0	636	7	0	0	0	0	467	
4	0	0	0	0	507	2	0	0	0	0	597	8	0	0	0	0	479	
5	0	0	0	0	379	3	0	0	0	0	440	9	0	0	0	0	337	
6	0	0	0	0	543	4	0	0	0	0	735	10	0	0	0	0	563	
7	0	0	0	0	510	5	0	0	0	0	402	11	0	0	0	0	432	
8	0	0	0	0	475	6	0	0	0	0	480	12	0	0	0	0	429	
9	0	0	0	0	496	7	0	0	0	0	754	13	0	0	0	0	500	
10	0	0	0	0	475	8	0	0	0	0	477	14	0	0	0	0	394	
11	0	0	0	0	484	9	0	0	0	0	621	15	0	0	0	0	348	
12	0	0	0	0	314	10	0	0	0	0	625	0	0	0	0	0	365	
13	0	0	0	0	604	11	0	0	0	0	498	1	0	0	0	0	553	
14	0	0	0	0	431	12	0	0	0	0	593	2	0	0	0	0	498	
15	0	0	0	0	414	13	0	0	0	0	479	3	0	0	0	0	329	
0	0	0	0	0	427	14	0	0	0	0	433	4	0	0	0	0	505	
1	0	0	0	0	539	15	0	0	0	0	522	5	0	0	0	0	508	
2	0	0	0	0	495	0	0	0	0	0	471	6	0	0	0	0	426	
3	0	0	0	0	617	1	0	0	0	0	680	7	0	0	0	0	551	
4	0	0	0	0	528	2	0	0	0	0	317	8	0	0	0	0	465	
5	0	0	0	0	459	3	0	0	0	0	527	9	0	0	0	0	539	
6	0	0	0	0	531	4	0	0	0	0	467	10	0	0	0	0	595	
7	0	0	0	0	518	5	0	0	0	0	435	11	0	0	0	0	517	
8	0	0	0	0	605	6	0	0	0	0	550	12	0	0	0	0	663	
9	0	0	0	0	537	7	0	0	0	0	475	13	0	0	0	0	364	
10	0	0	0	0	547	8	0	0	0	0	515	14	0	0	0	0	609	
11	0	0	0	0	611	9	0	0	0	0	449	15	0	0	0	0	656	
12	0	0	0	0	473	10	0	0	0	0	493	0	0	0	0	0	580	
13	0	0	0	0	331	11	0	0	0	0	498	1	0	0	0	0	321	
14	0	0	0	0	548	12	0	0	0	0	412	2	0	0	0	0	585	
15	0	0	0	0	361	13	0	0	0	0	418	3	0	0	0	0	576	
0	0	0	0	0	552	14	0	0	0	0	474	4	0	0	0	0	520	
1	0	0	0	0	539	15	0	0	0	0	561	5	0	0	0	0	405	
2	0	0	0	0	602	0	0	0	0	0	559	6	0	0	0	0	688	
3	0	0	0	0	533	1	0	0	0	0	379	7	0	0	0	0	563	
4	0	0	0	0	388	2	0	0	0	0	510	8	0	0	0	0	72	
5	0	0	0	0	545	3	0	0	0	0	493	9	0	0	0	0	602	
6	0	0	0	0	553	4	0	0	0	0	504	10	0	0	0	0	542	
7	0	0	0	0	586	5	0	0	0	0	667	11	0	0	0	0	478	
8	0	0	0	0	462	6	0	0	0	0	518	12	0	0	0	0	468	
9	0	0	0	0	525	7	0	0	0	0	617	13	0	0	0	0	499	
10	0	0	0	0	548	8	0	0	0	0	450	14	0	0	0	0	468	
11	0	0	0	0	431	9	0	0	0	0	502	15	0	0	0	0	570	
12	0	0	0	0	310	10	0	0	0	0	479	0	0	0	0	0	459	
13	0	0	0	0	569	11	0	0	0	0	468	1	0	0	0	0	522	
14	0	0	0	0	490	12	0	0	0	0	573	2	0	0	0	0	456	
15	0	0	0	0	580	13	0	0	0	0	489	3	0	0	0	0	550	
0	0	0	0	0	436	14	0	0	0	0	579	4	0	0	0	0	544	
1	0	0	0	0	544	15	0	0	0	0	615	5	0	0	0	0	504	
2	0	0	0	0	630	0	0	0	0	0	444	6	0	0	0	0	598	
3	0	0	0	0	525	1	0	0	0	0	568	7	0	0	0	0	473	
4	0	0	0	0	453	2	0	0	0	0	419	8	0	0	0	0	481	
5	0	0	0	0	492	3	0	0	0	0	556	9	0	0	0	0	612	
6	0	0	0	0	537	4	0	0	0	0	602	10	0	0	0	0	485	
7	0	0	0	0	530	5	0	0	0	0	460	11	0	0	0	0	471	
8	0	0	0	0	490	6	0	0	0	0	614	12	0	0	0	0	533	
9	0	0	0	0	446	7	0	0	0	0	476	13	0	0	0	0	625	
10	0	0	0	0	575	8	0	0	0	0	408	14	0	0	0	0	467	
11	0	0	0	0	529	9	0	0	0	0	538	15	0	0	0	0	537	
12	0	0	0	0	515	10	0	0	0	0	454	0	0	0	0	0	509	
13	0	0	0	0	331	11	0	0	0	0	601	1	0	0	0	0	488	
14	0	0	0	0	602	12	0	0	0	0	496	2	0	0	0	0	579	
15	0	0	0	0	375	13	0	0	0	0	441	3	0	0	0	0	231	
0	0	0	0	0	583	14	0	0	0	0	630	4	0	0	0	0	613	
1	0	0	0	0	433	15	0	0	0	0	385	5	0	0	0	0	318	
2	0	0	0	0	455	0	0	0	0	0	553	6	0	0	0	0	453	
3	0	0	0	0	690	1	0	0	0	0	710	7	0	0	0	0	776	
4	0	0	0	0	420	2	0	0	0	0	447	8	0	0	0	0	454	
5	0	0	0	0	508	3	0	0	0	0	630	9	0	0	0	0	712	
6	0	0	0	0	576	4	0	0	0	0	585	10	0	0	0	0	518	
7	0	0	0	0	430	5	0	0	0	0	764	11	0	0	0	0	505	
8	0	0	0	0	425	6	0	0	0	0	407	12	0	0	0	0	410	
9	0	0	0	0	622	7	0	0	0	0	632	13	0	0	0	0	340	
10	0	0	0	0	585	8	0	0	0	0	539	14	0	0	0	0	579	
11	0	0	0	0	345	9	0	0	0	0	595	15	0	0	0	0	341	
12	0	0	0	0	529	10	0	0	0	0	261	0	0	0	0	0	636	
13	0	0	0	0	504	11	0	0	0	0	525	1	0	0	0	0	569	
14	0	0	0	0	444	12	0	0	0	0	510	2	0	0	0	0	359	
15	0	0	0	0	647	13	0	0	0	0	573	3	0	0	0	0	579	
0	0	0	0	0	521	14	0	0	0	0	446	4	0	0	0	0	522	
1	0	0	0	0	545	15	0	0	0	0	768	5	0	0	0	0	520	
2	0	0	0	0	492	0	0	0	0	0	450	6	0	0	0	0	371	
3	0	0	0	0	384	1	0	0	0	0	430	7	0	0	0	0	366	
4	0	0	0	0	672	2	0	0	0	0	508	8	0	0	0	0	528	
5	0	0	0	0	589	3	0	0	0	0	540	9	0	0	0	0	463	
6	0	0	0	0	518	4	0	0	0	0	367	10	0	0	0	0	490	
7	0	0	0	0	540	5	0	0	0	0	540	11	0	0	0	0	552	
8	0	0	0	0	480	6	0	0	0	0	752	12	0	0	0	0	513	
9	0	0	0	0	562	7	0	0	0	0	408	13	0	0	0	0	488	
10	0	0	0	0	385	8	0	0	0	0	519	14	0	0	0	0	146	
11	0	0	0	0	368	9	0	0	0	0	548	15	0	0	0	0	544	
12	0	0	0	0	642	10	0	0	0	0	715	0	0	0	0	0	716	
13	0	0	0	0	663	11	0	0	0	0	156	1	0	0	0	0	519	
14	0	0	0	0	602	12	0	0	0	0	480	2	0	0	0	0	404	
15	0	0	0	0	332	13	0	0	0	0	551	3	0	0	0	0	260	
0	0	0	0	0	505	14	0	0	0	0	431	4	0	0	0	0	695	
1	0	0	0	0	639	15	0	0	0	0	383	5	0	0	0	0	551	
2	0	0	0	0	433	0	0	0	0	0	534	6	0	0	0	0	550	
3	0	0	0	0	678	1	0	0	0	0	593	7	0	0	0	0	655	
4	0	0	0	0	502	2	0	0	0	0	371	8	0	0	0	0	507	
5	0	0	0	0	105	3	0	0	0	0	558	9	0	0	0	0	411	
6	0	0	0	0	573	4	0	0	0	0	422	10	0	0	0	0	586	
7	0	0	0	0	523	5	0	0	0	0	609	11	0	0	0	0	466	
8	0	0	0	0	333	6	0	0	0	0	529	12	0	0	0	0	392	
9	0	0	0	0	543	7	0	0	0	0	521	13	0	0	0	0	586	
10	0	0	0	0	483	8	0	0	0	0	430	14	0	0	0	0	488	
11	0	0	0	0	497	9	0	0	0	0	478	15	0	0	0	0	603	
12	0	0	0	0	541	10	0	0	0	0	528	0	0	0	0	0	664	
13	0	0	0	0	527	11	0	0	0	0	414	1	0	0	0	0	539	
14	0	0	0	0	478	12	0	0	0	0	419	2	0	0	0	0	528	
15	0	0	0	0	529	13	0	0	0	0	796	3	0	0	0	0	550	
0	0	0	0	0	487	14	0	0	0	0	245	4	0	0	0	0	439	
1	0	0	0	0	511	15	0	0	0	0	536	5	0	0	0	0	520	
2	0	0	0	0	475	0	0	0	0	0	458	6	0	0	0	0	462	
3	0	0	0	0	385	1	0	0	0	0	323	7	0	0	0	0	591	
4	0	0	0	0	368	2	0	0	0	0	860	8	0	0	0	0	401	
5	0	0	0	0	624	3	0	0	0	0	353	9	0	0	0	0	616	
6	0	0	0	0	592	4	0	0	0	0	511	10	0	0	0	0	522	
7	0	0	0	0	360	5	0	0	0	0	555	11	0	0	0	0	455	
8	0	0	0	0	669	6	0	0	0	0	436	12	0	0	0	0	651	
9	0	0	0	0	500	7	0	0	0	0	466	13	0	0	0	0	481	
10	0	0	0	0	627	8	0	0	0	0	536	14	0	0	0	0	484	
11	0	0	0	0	481	9	0	0	0	0	408	15	0	0	0	0	443	
12	0	0	0	0	530	10	0	0	0	0	634	0	0	0	0	0	410	
13	0	0	0	0	369	11	0	0	0	0	458	1	0	0	0	0	383	
14	0	0	0	0	498	12	0	0	0	0	468	2	0	0	0	0	570	
15	0	0	0	0	422	13	0	0	0	0	551	3	0	0	0	0	264	
0	0	0	0	0	425	14	0	0	0	0	497	4	0	0	0	0	470	
1	0	0	0	0	523	15	0	0	0	0	435	5	0	0	0	0	501	
2	0	0	0	0	525	0	0	0	0	0	594	6	0	0	0	0	517	
3	0	0	0	0	437	1	0	0	0	0	709	7	0	0	0	0	461	
4	0	0	0	0	470	2	0	0	0	0	368	8	0	0	0	0	655	
5	0	0	0	0	592	3	0	0	0	0	478	9	0	0	0	0	595	
6	0	0	0	0	679	4	0	0	0	0	577	10	0	0	0	0	580	
7	0	0	0	0	315	5	0	0	0	0	501	11	0	0	0	0	180	
8	0	0	0	0	568	6	0	0	0	0	708	12	0	0	0	0	527	
9	0	0	0	0	570	7	0	0	0	0	253	13	0	0	0	0	571	
10	0	0	0	0	488	8	0	0	0	0	364	14	0	0	0	0	493	
11	0	0	0	0	528	9	0	0	0	0	449	15	0	0	0	0	547	
12	0	0	0	0	420	10	0	0	0	0	334	0	0	0	0	0	398	
13	0	0	0	0	457	11	0	0	0	0	560	1	0	0	0	0	635	
14	0	0	0	0	394	12	0	0	0	0	473	2	0	0	0	0	456	
15	0	0	0	0	539	13	0	0	0	0	532	3	0	0	0	0	656	
0	0	0	0	0	473	14	0	0	0	0	686	4	0	0	0	0	492	
1	0	0	0	0	511	15	0	0	0	0	524	5	0	0	0	0	445	
2	0	0	0	0	438	0	0	0	0	0	573	6	0	0	0	0	364	
3	0	0	0	0	513	1	0	0	0	0	321	7	0	0	0	0	561	
4	0	0	0	0	511	2	0	0	0	0	500	8	0	0	0	0	547	
5	0	0	0	0	329	3	0	0	0	0	488	9	0	0	0	0	411	
6	0	0	0	0	574	4	0	0	0	0	688	10	0	0	0	0	734	
7	0	0	0	0	478	5	0	0	0	0	524	11	0	0	0	0	641	
8	0	0	0	0	498	6	0	0	0	0	346	12	0	0	0	0	442	
9	0	0	0	0	487	7	0	0	0	0	424	13	0	0	0	0	699	
10	0	0	0	0	578	8	0	0	0	0	593	14	0	0	0	0	539	
11	0	0	0	0	421	9	0	0	0	0	424	15	0	0	0	0	343	
12	0	0	0	0	585	10	0	0	0	0	543	0	0	0	0	0	512	
13	0	0	0	0	476	11	0	0	0	0	738	1	0	0	0	0	492	
14	0	0	0	0	565	12	0	0	0	0	285	2	0	0	0	0	624	
15	0	0	0	0	483	13	0	0	0	0	621	3	0	0	0	0	470	
0	0	0	0	0	456	14	0	0	0	0	719	4	0	0	0	0	535	
1	0	0	0	0	475	15	0	0	0	0	521	5	0	0	0	0	554	
2	0	0	0	0	532	0	0	0	0	0	399	6	0	0	0	0	523	
3	0	0	0	0	508	1	0	0	0	0	632	7	0	0	0	0	586	
4	0	0	0	0	537	2	0	0	0	0	454	8	0	0	0	0	654	
5	0	0	0	0	589	3	0	0	0	0	619	9	0	0	0	0	562	
6	0	0	0	0	435	4	0	0	0	0	364	10	0	0	0	0	438	
7	0	0	0	0	488	5	0	0	0	0	527	11	0	0	0	0	566	
8	0	0	0	0	531	6	0	0	0	0	556	12	0	0	0	0	609	
9	0	0	0	0	438	7	0	0	0	0	521	13	0	0	0	0	305	
10	0	0	0	0	558	8	0	0	0	0	487	14	0	0	0	0	586	
11	0	0	0	0	616	9	0	0	0	0	511	15	0	0	0	0	534	
12	0	0	0	0	481	10	0	0	0	0	479	0	0	0	0	0	641	
13	0	0	0	0	511	11	0	0	0	0	494	1	0	0	0	0	477	
14	0	0	0	0	576	12	0	0	0	0	368	2	0	0	0	0	618	
15	0	0	0	0	519	13	0	0	0	0	593	3	0	0	0	0	472	
0	0	0	0	0	505	14	0	0	0	0	361	4	0	0	0	0	403	
1	0	0	0	0	558	15	0	0	0	0	697	5	0	0	0	0	627	
2	0	0	0	0	489	0	0	0	0	0	760	6	0	0	0	0	528	
3	0	0	0	0	356	1	0	0	0	0	347	7	0	0	0	0	448	
4	0	0	0	0	507	2	0	0	0	0	534	8	0	0	0	0	721	
5	0	0	0	0	655	3	0	0	0	0	389	9	0	0	0	0	553	
6	0	0	0	0	408	4	0	0	0	0	508	10	0	0	0	0	267	
7	0	0	0	0	507	5	0	0	0	0	395	11	0	0	0	0	631	
8	0	0	0	0	605	6	0	0	0	0	749	12	0	0	0	0	500	
9	0	0	0	0	450	7	0	0	0	0	223	13	0	0	0	0	497	
10	0	0	0	0	398	8	0	0	0	0	830	14	0	0	0	0	513	
11	0	0	0	0	590	9	0	0	0	0	431	15	0	0	0	0	562	
12	0	0	0	0	324	10	0	0	0	0	638	0	0	0	0	0	432	
13	0	0	0	0	558	11	0	0	0	0	519	1	0	0	0	0	568	
14	0	0	0	0	487	12	0	0	0	0	515	2	0	0	0	0	561	
15	0	0	0	0	631	13	0	0	0	0	787	3	0	0	0	0	636	
0	0	0	0	0	475	14	0	0	0	0	417	4	0	0	0	0	395	
1	0	0	0	0	506	15	0	0	0	0	500	5	0	0	0	0	569	
2	0	0	0	0	633	0	0	0	0	0	668	6	0	0	0	0	418	
3	0	0	0	0	462	1	0	0	0	0	737	7	0	0	0	0	395	
4	0	0	0	0	432	2	0	0	0	0	448	8	0	0	0	0	615	
5	0	0	0	0	593	3	0	0	0	0	518	9	0	0	0	0	555	
6	0	0	0	0	348	4	0	0	0	0	501	10	0	0	0	0	479	
7	0	0	0	0	590	5	0	0	0	0	826	11	0	0	0	0	492	
8	0	0	0	0	653	6	0	0	0	0	560	12	0	0	0	0	470	
9	0	0	0	0	496	7	0	0	0	0	842	13	0	0	0	0	592	
10	0	0	0	0	632	8	0	0	0	0	259	14	0	0	0	0	496	
11	0	0	0	0	270	9	0	0	0	0	540	15	0	0	0	0	226	
12	0	0	0	0	710	10	0	0	0	0	519	0	0	0	0	0	607	
13	0	0	0	0	529	11	0	0	0	0	452	1	0	0	0	0	386	
14	0	0	0	0	355	12	0	0	0	0	560	2	0	0	0	0	684	
15	0	0	0	0	596	13	0	0	0	0	319	3	0	0	0	0	573	
0	0	0	0	0	355	14	0	0	0	0	428	4	0	0	0	0	305	
1	0	0	0	0	483	15	0	0	0	0	530	5	0	0	0	0	672	
2	0	0	0	0	605	0	0	0	0	0	405	6	0	0	0	0	514	
3	0	0	0	0	217	1	0	0	0	0	546	7	0	0	0	0	237	
4	0	0	0	0	631	2	0	0	0	0	537	8	0	0	0	0	551	
5	0	0	0	0	368	3	0	0	0	0	422	9	0	0	0	0	248	
6	0	0	0	0	502	4	0	0	0	0	600	10	0	0	0	0	492	
7	0	0	0	0	544	5	0	0	0	0	452	11	0	0	0	0	591	
8	0	0	0	0	533	6	0	0	0	0	555	12	0	0	0	0	577	
9	0	0	0	0	494	7	0	0	0	0	455	13	0	0	0	0	514	
10	0	0	0	0	599	8	0	0	0	0	519	14	0	0	0	0	547	
11	0	0	0	0	563	9	0	0	0	0	450	15	0	0	0	0	494	
12	0	0	0	0	489	10	0	0	0	0	329	0	0	0	0	0	424	
13	0	0	0	0	447	11	0	0	0	0	568	1	0	0	0	0	588	
14	0	0	0	0	621	12	0	0	0	0	412	2	0	0	0	0	542	
15	0	0	0	0	500	13	0	0	0	0	754	3	0	0	0	0	624	
0	0	0	0	0	601	14	0	0	0	0	396	4	0	0	0	0	535	
1	0	0	0	0	550	15	0	0	0	0	507	5	0	0	0	0	501	
2	0	0	0	0	351	0	0	0	0	0	475	6	0	0	0	0	455	
3	0	0	0	0	395	1	0	0	0	0	391	7	0	0	0	0	543	
4	0	0	0	0	463	2	0	0	0	0	607	8	0	0	0	0	448	
5	0	0	0	0	540	3	0	0	0	0	694	9	0	0	0	0	465	
6	0	0	0	0	399	4	0	0	0	0	335	10	0	0	0	0	512	
7	0	0	0	0	537	5	0	0	0	0	653	11	0	0	0	0	420	
8	0	0	0	0	343	6	0	0	0	0	438	12	0	0	0	0	170	
9	0	0	0	0	414	7	0	0	0	0	472	13	0	0	0	0	563	
10	0	0	0	0	588	8	0	0	0	0	494	14	0	0	0	0	723	
11	0	0	0	0	558	9	0	0	0	0	572	15	0	0	0	0	431	
12	0	0	0	0	483	10	0	0	0	0	406	0	0	0	0	0	588	
13	0	0	0	0	570	11	0	0	0	0	540	1	0	0	0	0	543	
14	0	0	0	0	638	12	0	0	0	0	414	2	0	0	0	0	623	
15	0	0	0	0	588	13	0	0	0	0	438	3	0	0	0	0	416	
0	0	0	0	0	465	14	0	0	0	0	448	4	0	0	0	0	264	
1	0	0	0	0	410	15	0	0	0	0	560	5	0	0	0	0	691	
2	0	0	0	0	585	0	0	0	0	0	499	6	0	0	0	0	562	
3	0	0	0	0	474	1	0	0	0	0	547	7	0	0	0	0	572	
4	0	0	0	0	649	2	0	0	0	0	554	8	0	0	0	0	444	
5	0	0	0	0	550	3	0	0	0	0	533	9	0	0	0	0	511	
6	0	0	0	0	348	4	0	0	0	0	356	10	0	0	0	0	389	
7	0	0	0	0	571	5	0	0	0	0	567	11	0	0	0	0	488	
8	0	0	0	0	597	6	0	0	0	0	601	12	0	0	0	0	582	
9	0	0	0	0	522	7	0	0	0	0	497	13	0	0	0	0	300	
10	0	0	0	0	492	8	0	0	0	0	336	14	0	0	0	0	533	
11	0	0	0	0	364	9	0	0	0	0	473	15	0	0	0	0	364	
12	0	0	0	0	492	10	0	0	0	0	744	0	0	0	0	0	519	
13	0	0	0	0	574	11	0	0	0	0	316	1	0	0	0	0	628	
14	0	0	0	0	538	12	0	0	0	0	539	2	0	0	0	0	476	
15	0	0	0	0	507	13	0	0	0	0	577	3	0	0	0	0	464	
0	0	0	0	0	609	14	0	0	0	0	461	4	0	0	0	0	470	
1	0	0	0	0	467	15	0	0	0	0	313	5	0	0	0	0	470	
2	0	0	0	0	412	0	0	0	0	0	495	6	0	0	0	0	216	
3	0	0	0	0	661	1	0	0	0	0	403	7	0	0	0	0	571	
4	0	0	0	0	572	2	0	0	0	0	572	8	0	0	0	0	511	
5	0	0	0	0	588	3	0	0	0	0	458	9	0	0	0	0	400	
6	0	0	0	0	608	4	0	0	0	0	543	10	0	0	0	0	503	
7	0	0	0	0	386	5	0	0	0	0	359	11	0	0	0	0	448	
8	0	0	0	0	574	6	0	0	0	0	747	12	0	0	0	0	674	
9	0	0	0	0	610	7	0	0	0	0	434	13	0	0	0	0	576	
10	0	0	0	0	506	8	0	0	0	0	275	14	0	0	0	0	471	
11	0	0	0	0	510	9	0	0	0	0	505	15	0	0	0	0	576	
12	0	0	0	0	597	10	0	0	0	0	537	0	0	0	0	0	452	
13	0	0	0	0	348	11	0	0	0	0	443	1	0	0	0	0	425	
14	0	0	0	0	651	12	0	0	0	0	427	2	0	0	0	0	634	
15	0	0	0	0	578	13	0	0	0	0	528	3	0	0	0	0	525	
0	0	0	0	0	619	14	0	0	0	0	486	4	0	0	0	0	547	
1	0	0	0	0	437	15	0	0	0	0	688	5	0	0	0	0	525	
2	0	0	0	0	599	0	0	0	0	0	429	6	0	0	0	0	612	
3	0	0	0	0	523	1	0	0	0	0	488	7	0	0	0	0	419	
4	0	0	0	0	353	2	0	0	0	0	642	8	0	0	0	0	563	
5	0	0	0	0	593	3	0	0	0	0	700	9	0	0	0	0	502	
6	0	0	0	0	399	4	0	0	0	0	293	10	0	0	0	0	433	
7	0	0	0	0	489	5	0	0	0	0	721	11	0	0	0	0	448	
8	0	0	0	0	378	6	0	0	0	0	427	12	0	0	0	0	549	
9	0	0	0	0	547	7	0	0	0	0	380	13	0	0	0	0	415	
10	0	0	0	0	449	8	0	0	0	0	382	14	0	0	0	0	300	
11	0	0	0	0	411	9	0	0	0	0	491	15	0	0	0	0	699	
12	0	0	0	0	395	10	0	0	0	0	472	0	0	0	0	0	348	
13	0	0	0	0	623	11	0	0	0	0	352	1	0	0	0	0	604	
14	0	0	0	0	495	12	0	0	0	0	474	2	0	0	0	0	538	
15	0	0	0	0	608	13	0	0	0	0	494	3	0	0	0	0	476	
0	0	0	0	0	498	14	0	0	0	0	450	4	0	0	0	0	551	
1	0	0	0	0	618	15	0	0	0	0	550	5	0	0	0	0	792	
2	0	0	0	0	563	0	0	0	0	0	344	6	0	0	0	0	545	
3	0	0	0	0	588	1	0	0	0	0	577	7	0	0	0	0	543	
4	0	0	0	0	350	2	0	0	0	0	570	8	0	0	0	0	209	
5	0	0	0	0	460	3	0	0	0	0	419	9	0	0	0	0	765	
6	0	0	0	0	568	4	0	0	0	0	277	10	0	0	0	0	577	
7	0	0	0	0	589	5	0	0	0	0	423	11	0	0	0	0	615	
8	0	0	0	0	526	6	0	0	0	0	491	12	0	0	0	0	530	
9	0	0	0	0	469	7	0	0	0	0	558	13	0	0	0	0	546	
10	0	0	0	0	610	8	0	0	0	0	201	14	0	0	0	0	587	
11	0	0	0	0	454	9	0	0	0	0	590	15	0	0	0	0	592	
12	0	0	0	0	542	10	0	0	0	0	425	0	0	0	0	0	548	
13	0	0	0	0	413	11	0	0	0	0	456	1	0	0	0	0	495	
14	0	0	0	0	643	12	0	0	0	0	578	2	0	0	0	0	531	
15	0	0	0	0	506	13	0	0	0	0	610	3	0	0	0	0	495	
0	0	0	0	0	454	14	0	0	0	0	638	4	0	0	0	0	610	
1	0	0	0	0	533	15	0	0	0	0	626	5	0	0	0	0	524	
2	0	0	0	0	553	0	0	0	0	0	539	6	0	0	0	0	517	
3	0	0	0	0	558	1	0	0	0	0	427	7	0	0	0	0	477	
4	0	0	0	0	410	2	0	0	0	0	446	8	0	0	0	0	465	
5	0	0	0	0	545	3	0	0	0	0	501	9	0	0	0	0	540	
6	0	0	0	0	582	4	0	0	0	0	444	10	0	0	0	0	540	
7	0	0	0	0	407	5	0	0	0	0	457	11	0	0	0	0	217	
8	0	0	0	0	600	6	0	0	0	0	518	12	0	0	0	0	628	
9	0	0	0	0	563	7	0	0	0	0	587	13	0	0	0	0	489	
10	0	0	0	0	479	8	0	0	0	0	392	14	0	0	0	0	549	
11	0	0	0	0	282	9	0	0	0	0	419	15	0	0	0	0	492	
12	0	0	0	0	625	10	0	0	0	0	716	0	0	0	0	0	531	
13	0	0	0	0	342	11	0	0	0	0	696	1	0	0	0	0	291	
14	0	0	0	0	398	12	0	0	0	0	480	2	0	0	0	0	558	
15	0	0	0	0	540	13	0	0	0	0	370	3	0	0	0	0	576	
0	0	0	0	0	495	14	0	0	0	0	495	4	0	0	0	0	541	
1	0	0	0	0	492	15	0	0	0	0	542	5	0	0	0	0	552	
2	0	0	0	0	604	0	0	0	0	0	606	6	0	0	0	0	529	
3	0	0	0	0	569	1	0	0	0	0	424	7	0	0	0	0	567	
4	0	0	0	0	553	2	0	0	0	0	452	8	0	0	0	0	375	
5	0	0	0	0	557	3	0	0	0	0	540	9	0	0	0	0	648	
6	0	0	0	0	637	4	0	0	0	0	632	10	0	0	0	0	543	
7	0	0	0	0	612	5	0	0	0	0	268	11	0	0	0	0	493	
8	0	0	0	0	438	6	0	0	0	0	627	12	0	0	0	0	469	
9	0	0	0	0	544	7	0	0	0	0	459	13	0	0	0	0	675	
10	0	0	0	0	647	8	0	0	0	0	411	14	0	0	0	0	600	
11	0	0	0	0	463	9	0	0	0	0	430	15	0	0	0	0	473	
12	0	0	0	0	518	10	0	0	0	0	514	0	0	0	0	0	519	
13	0	0	0	0	415	11	0	0	0	0	388	1	0	0	0	0	408	
14	0	0	0	0	409	12	0	0	0	0	570	2	0	0	0	0	84	
15	0	0	0	0	489	13	0	0	0	0	687	3	0	0	0	0	660	
0	0	0	0	0	598	14	0	0	0	0	418	4	0	0	0	0	551	
1	0	0	0	0	608	15	0	0	0	0	474	5	0	0	0	0	555	
2	0	0	0	0	437	0	0	0	0	0	522	6	0	0	0	0	417	
3	0	0	0	0	569	1	0	0	0	0	604	7	0	0	0	0	560	
4	0	0	0	0	551	2	0	0	0	0	288	8	0	0	0	0	543	
5	0	0	0	0	474	3	0	0	0	0	917	9	0	0	0	0	511	
6	0	0	0	0	472	4	0	0	0	0	318	10	0	0	0	0	381	
7	0	0	0	0	511	5	0	0	0	0	620	11	0	0	0	0	551	
8	0	0	0	0	482	6	0	0	0	0	492	12	0	0	0	0	438	
9	0	0	0	0	512	7	0	0	0	0	576	13	0	0	0	0	373	
10	0	0	0	0	550	8	0	0	0	0	529	14	0	0	0	0	770	
11	0	0	0	0	411	9	0	0	0	0	381	15	0	0	0	0	522	
12	0	0	0	0	591	10	0	0	0	0	627	0	0	0	0	0	579	
13	0	0	0	0	478	11	0	0	0	0	397	1	0	0	0	0	529	
14	0	0	0	0	544	12	0	0	0	0	267	2	0	0	0	0	580	
15	0	0	0	0	364	13	0	0	0	0	606	3	0	0	0	0	531	
0	0	0	0	0	455	14	0	0	0	0	582	4	0	0	0	0	608	
1	0	0	0	0	521	15	0	0	0	0	471	5	0	0	0	0	543	
2	0	0	0	0	389	0	0	0	0	0	467	6	0	0	0	0	535	
3	0	0	0	0	531	1	0	0	0	0	356	7	0	0	0	0	575	
4	0	0	0	0	529	2	0	0	0	0	765	8	0	0	0	0	499	
5	0	0	0	0	508	3	0	0	0	0	343	9	0	0	0	0	525	
6	0	0	0	0	531	4	0	0	0	0	584	10	0	0	0	0	568	
7	0	0	0	0	503	5	0	0	0	0	331	11	0	0	0	0	504	
8	0	0	0	0	423	6	0	0	0	0	499	12	0	0	0	0	585	
9	0	0	0	0	582	7	0	0	0	0	600	13	0	0	0	0	556	
10	0	0	0	0	506	8	0	0	0	0	363	14	0	0	0	0	542	
11	0	0	0	0	415	9	0	0	0	0	556	15	0	0	0	0	496	
12	0	0	0	0	404	10	0	0	0	0	499	0	0	0	0	0	453	
13	0	0	0	0	603	11	0	0	0	0	371	1	0	0	0	0	568	
14	0	0	0	0	521	12	0	0	0	0	348	2	0	0	0	0	290	
15	0	0	0	0	560	13	0	0	0	0	541	3	0	0	0	0	541	
0	0	0	0	0	379	14	0	0	0	0	490	4	0	0	0	0	497	
1	0	0	0	0	527	15	0	0	0	0	425	5	0	0	0	0	508	
2	0	0	0	0	544	0	0	0	0	0	525	6	0	0	0	0	495	
3	0	0	0	0	582	1	0	0	0	0	445	7	0	0	0	0	556	
4	0	0	0	0	437	2	0	0	0	0	522	8	0	0	0	0	607	
5	0	0	0	0	550	3	0	0	0	0	739	9	0	0	0	0	576	
6	0	0	0	0	485	4	0	0	0	0	712	10	0	0	0	0	588	
7	0	0	0	0	546	5	0	0	0	0	431	11	0	0	0	0	492	
8	0	0	0	0	400	6	0	0	0	0	645	12	0	0	0	0	600	
9	0	0	0	0	543	7	0	0	0	0	431	13	0	0	0	0	506	
10	0	0	0	0	545	8	0	0	0	0	468	14	0	0	0	0	519	
11	0	0	0	0	454	9	0	0	0	0	553	15	0	0	0	0	507	
12	0	0	0	0	565	10	0	0	0	0	688	0	0	0	0	0	556	
13	0	0	0	0	480	11	0	0	0	0	569	1	0	0	0	0	419	
14	0	0	0	0	537	12	0	0	0	0	568	2	0	0	0	0	441	
15	0	0	0	0	522	13	0	0	0	0	667	3	0	0	0	0	399	
0	0	0	0	0	359	14	0	0	0	0	615	4	0	0	0	0	339	
1	0	0	0	0	526	15	0	0	0	0	408	5	0	0	0	0	590	
2	0	0	0	0	504	0	0	0	0	0	530	6	0	0	0	0	539	
3	0	0	0	0	527	1	0	0	0	0	455	7	0	0	0	0	542	
4	0	0	0	0	530	2	0	0	0	0	601	8	0	0	0	0	559	
5	0	0	0	0	469	3	0	0	0	0	322	9	0	0	0	0	441	
6	0	0	0	0	432	4	0	0	0	0	597	10	0	0	0	0	262	
7	0	0	0	0	526	5	0	0	0	0	560	11	0	0	0	0	611	
8	0	0	0	0	512	6	0	0	0	0	495	12	0	0	0	0	568	
9	0	0	0	0	492	7	0	0	0	0	459	13	0	0	0	0	539	
10	0	0	0	0	343	8	0	0	0	0	563	14	0	0	0	0	581	
11	0	0	0	0	643	9	0	0	0	0	481	15	0	0	0	0	562	
12	0	0	0	0	401	10	0	0	0	0	463	0	0	0	0	0	393	
13	0	0	0	0	489	11	0	0	0	0	568	1	0	0	0	0	486	
14	0	0	0	0	437	12	0	0	0	0	618	2	0	0	0	0	459	
15	0	0	0	0	576	13	0	0	0	0	346	3	0	0	0	0	519	
0	0	0	0	0	521	14	0	0	0	0	579	4	0	0	0	0	563	
1	0	0	0	0	525	15	0	0	0	0	489	5	0	0	0	0	538	
2	0	0	0	0	544	0	0	0	0	0	518	6	0	0	0	0	508	
3	0	0	0	0	627	1	0	0	0	0	549	7	0	0	0	0	666	
4	0	0	0	0	450	2	0	0	0	0	567	8	0	0	0	0	459	
5	0	0	0	0	665	3	0	0	0	0	757	9	0	0	0	0	640	
6	0	0	0	0	510	4	0	0	0	0	509	10	0	0	0	0	440	
7	0	0	0	0	543	5	0	0	0	0	450	11	0	0	0	0	544	
8	0	0	0	0	500	6	0	0	0	0	532	12	0	0	0	0	412	
9	0	0	0	0	564	7	0	0	0	0	380	13	0	0	0	0	521	
10	0	0	0	0	502	8	0	0	0	0	799	14	0	0	0	0	495	
11	0	0	0	0	510	9	0	0	0	0	371	15	0	0	0	0	484	
12	0	0	0	0	519	10	0	0	0	0	407	0	0	0	0	0	480	
13	0	0	0	0	367	11	0	0	0	0	563	1	0	0	0	0	581	
14	0	0	0	0	635	12	0	0	0	0	451	2	0	0	0	0	548	
15	0	0	0	0	500	13	0	0	0	0	466	3	0	0	0	0	427	
0	0	0	0	0	536	14	0	0	0	0	553	4	0	0	0	0	624	
1	0	0	0	0	605	15	0	0	0	0	547	5	0	0	0	0	457	
2	0	0	0	0	457	0	0	0	0	0	455	6	0	0	0	0	557	
3	0	0	0	0	556	1	0	0	0	0	660	7	0	0	0	0	524	
4	0	0	0	0	371	2	0	0	0	0	432	8	0	0	0	0	414	
5	0	0	0	0	435	3	0	0	0	0	718	9	0	0	0	0	501	
6	0	0	0	0	648	4	0	0	0	0	412	10	0	0	0	0	573	
7	0	0	0	0	506	5	0	0	0	0	792	11	0	0	0	0	428	
8	0	0	0	0	520	6	0	0	0	0	411	12	0	0	0	0	524	
9	0	0	0	0	535	7	0	0	0	0	661	13	0	0	0	0	478	
10	0	0	0	0	523	8	0	0	0	0	535	14	0	0	0	0	428	
11	0	0	0	0	468	9	0	0	0	0	456	15	0	0	0	0	369	
12	0	0	0	0	543	10	0	0	0	0	480	0	0	0	0	0	624	
13	0	0	0	0	534	11	0	0	0	0	576	1	0	0	0	0	531	
14	0	0	0	0	604	12	0	0	0	0	416	2	0	0	0	0	587	
15	0	0	0	0	565	13	0	0	0	0	580	3	0	0	0	0	504	
0	0	0	0	0	561	14	0	0	0	0	331	4	0	0	0	0	355	
1	0	0	0	0	539	15	0	0	0	0	682	5	0	0	0	0	480	
2	0	0	0	0	582	0	0	0	0	0	468	6	0	0	0	0	516	
3	0	0	0	0	465	1	0	0	0	0	383	7	0	0	0	0	486	
4	0	0	0	0	622	2	0	0	0	0	526	8	0	0	0	0	590	
5	0	0	0	0	528	3	0	0	0	0	470	9	0	0	0	0	437	
6	0	0	0	0	408	4	0	0	0	0	750	10	0	0	0	0	487	
7	0	0	0	0	603	5	0	0	0	0	444	11	0	0	0	0	525	
8	0	0	0	0	497	6	0	0	0	0	435	12	0	0	0	0	244	
9	0	0	0	0	535	7	0	0	0	0	771	13	0	0	0	0	710	
10	0	0	0	0	575	8	0	0	0	0	419	14	0	0	0	0	465	
11	0	0	0	0	434	9	0	0	0	0	488	15	0	0	0	0	782	
12	0	0	0	0	519	10	0	0	0	0	367	0	0	0	0	0	440	
13	0	0	0	0	415	11	0	0	0	0	467	1	0	0	0	0	475	
14	0	0	0	0	542	12	0	0	0	0	559	2	0	0	0	0	544	
15	0	0	0	0	528	13	0	0	0	0	162	3	0	0	0	0	496	
0	0	0	0	0	551	14	0	0	0	0	483	4	0	0	0	0	330	
1	0	0	0	0	620	15	0	0	0	0	572	5	0	0	0	0	556	
2	0	0	0	0	524	0	0	0	0	0	441	6	0	0	0	0	473	
3	0	0	0	0	580	1	0	0	0	0	702	7	0	0	0	0	509	
4	0	0	0	0	493	2	0	0	0	0	376	8	0	0	0	0	440	
5	0	0	0	0	552	3	0	0	0	0	730	9	0	0	0	0	578	
6	0	0	0	0	363	4	0	0	0	0	393	10	0	0	0	0	451	
7	0	0	0	0	562	5	0	0	0	0	499	11	0	0	0	0	590	
8	0	0	0	0	520	6	0	0	0	0	510	12	0	0	0	0	501	
9	0	0	0	0	344	7	0	0	0	0	587	13	0	0	0	0	382	
10	0	0	0	0	541	8	0	0	0	0	482	14	0	0	0	0	571	
11	0	0	0	0	549	9	0	0	0	0	537	15	0	0	0	0	331	
12	0	0	0	0	535	10	0	0	0	0	427	0	0	0	0	0	622	
13	0	0	0	0	574	11	0	0	0	0	606	1	0	0	0	0	497	
14	0	0	0	0	391	12	0	0	0	0	387	2	0	0	0	0	514	
15	0	0	0	0	564	13	0	0	0	0	704	3	0	0	0	0	652	
0	0	0	0	0	489	14	0	0	0	0	438	4	0	0	0	0	548	
1	0	0	0	0	512	15	0	0	0	0	424	5	0	0	0	0	448	
2	0	0	0	0	529	0	0	0	0	0	531	6	0	0	0	0	515	
3	0	0	0	0	368	1	0	0	0	0	650	7	0	0	0	0	295	
4	0	0	0	0	611	2	0	0	0	0	481	8	0	0	0	0	577	
5	0	0	0	0	421	3	0	0	0	0	495	9	0	0	0	0	587	
6	0	0	0	0	568	4	0	0	0	0	405	10	0	0	0	0	492	
7	0	0	0	0	444	5	0	0	0	0	557	11	0	0	0	0	496	
8	0	0	0	0	568	6	0	0	0	0	502	12	0	0	0	0	570	
9	0	0	0	0	372	7	0	0	0	0	493	13	0	0	0	0	414	
10	0	0	0	0	576	8	0	0	0	0	599	14	0	0	0	0	454	
11	0	0	0	0	425	9	0	0	0	0	807	15	0	0	0	0	392	
12	0	0	0	0	491	10	0	0	0	0	431	0	0	0	0	0	477	
13	0	0	0	0	414	11	0	0	0	0	565	1	0	0	0	0	440	
14	0	0	0	0	527	12	0	0	0	0	461	2	0	0	0	0	575	
15	0	0	0	0	407	13	0	0	0	0	592	3	0	0	0	0	479	
0	0	0	0	0	462	14	0	0	0	0	542	4	0	0	0	0	448	
1	0	0	0	0	530	15	0	0	0	0	503	5	0	0	0	0	483	
2	0	0	0	0	555	0	0	0	0	0	477	6	0	0	0	0	569	
3	0	0	0	0	254	1	0	0	0	0	569	7	0	0	0	0	552	
4	0	0	0	0	617	2	0	0	0	0	397	8	0	0	0	0	560	
5	0	0	0	0	412	3	0	0	0	0	502	9	0	0	0	0	467	
6	0	0	0	0	572	4	0	0	0	0	510	10	0	0	0	0	605	
7	0	0	0	0	546	5	0	0	0	0	547	11	0	0	0	0	526	
8	0	0	0	0	504	6	0	0	0	0	576	12	0	0	0	0	492	
9	0	0	0	0	469	7	0	0	0	0	558	13	0	0	0	0	314	
10	0	0	0	0	607	8	0	0	0	0	210	14	0	0	0	0	654	
11	0	0	0	0	705	9	0	0	0	0	550	15	0	0	0	0	496	
12	0	0	0	0	596	10	0	0	0	0	507	0	0	0	0	0	664	
13	0	0	0	0	467	11	0	0	0	0	678	1	0	0	0	0	543	
14	0	0	0	0	548	12	0	0	0	0	440	2	0	0	0	0	589	
15	0	0	0	0	565	13	0	0	0	0	434	3	0	0	0	0	524	
0	0	0	0	0	559	14	0	0	0	0	494	4	0	0	0	0	556	
1	0	0	0	0	475	15	0	0	0	0	503	5	0	0	0	0	401	
2	0	0	0	0	518	0	0	0	0	0	430	6	0	0	0	0	620	
3	0	0	0	0	607	1	0	0	0	0	524	7	0	0	0	0	658	
4	0	0	0	0	550	2	0	0	0	0	398	8	0	0	0	0	528	
5	0	0	0	0	438	3	0	0	0	0	494	9	0	0	0	0	499	
6	0	0	0	0	608	4	0	0	0	0	315	10	0	0	0	0	651	
7	0	0	0	0	551	5	0	0	0	0	527	11	0	0	0	0	503	
8	0	0	0	0	460	6	0	0	0	0	534	12	0	0	0	0	372	
9	0	0	0	0	568	7	0	0	0	0	307	13	0	0	0	0	645	
10	0	0	0	0	675	8	0	0	0	0	686	14	0	0	0	0	585	
11	0	0	0	0	505	9	0	0	0	0	472	15	0	0	0	0	553	
12	0	0	0	0	495	10	0	0	0	0	571	0	0	0	0	0	520	
13	0	0	0	0	387	11	0	0	0	0	723	1	0	0	0	0	451	
14	0	0	0	0	591	12	0	0	0	0	352	2	0	0	0	0	504	
15	0	0	0	0	481	13	0	0	0	0	748	3	0	0	0	0	394	
0	0	0	0	0	558	14	0	0	0	0	311	4	0	0	0	0	468	
1	0	0	0	0	447	15	0	0	0	0	671	5	0	0	0	0	359	
2	0	0	0	0	430	0	0	0	0	0	419	6	0	0	0	0	516	
3	0	0	0	0	496	1	0	0	0	0	493	7	0	0	0	0	501	
4	0	0	0	0	411	2	0	0	0	0	558	8	0	0	0	0	330	
5	0	0	0	0	599	3	0	0	0	0	380	9	0	0	0	0	551	
6	0	0	0	0	511	4	0	0	0	0	614	10	0	0	0	0	486	
7	0	0	0	0	632	5	0	0	0	0	901	11	0	0	0	0	682	
8	0	0	0	0	529	6	0	0	0	0	397	12	0	0	0	0	588	
9	0	0	0	0	470	7	0	0	0	0	719	13	0	0	0	0	513	
10	0	0	0	0	579	8	0	0	0	0	313	14	0	0	0	0	574	
11	0	0	0	0	544	9	0	0	0	0	461	15	0	0	0	0	498	
12	0	0	0	0	384	10	0	0	0	0	433	0	0	0	0	0	281	
13	0	0	0	0	627	11	0	0	0	0	442	1	0	0	0	0	660	
14	0	0	0	0	521	12	0	0	0	0	611	2	0	0	0	0	459	
15	0	0	0	0	450	13	0	0	0	0	362	3	0	0	0	0	540	
0	0	0	0	0	559	14	0	0	0	0	740	4	0	0	0	0	554	
1	0	0	0	0	465	15	0	0	0	0	387	5	0	0	0	0	351	
2	0	0	0	0	495	0	0	0	0	0	572	6	0	0	0	0	564	
3	0	0	0	0	562	1	0	0	0	0	467	7	0	0	0	0	495	
4	0	0	0	0	646	2	0	0	0	0	519	8	0	0	0	0	436	
5	0	0	0	0	551	3	0	0	0	0	552	9	0	0	0	0	752	
6	0	0	0	0	628	4	0	0	0	0	472	10	0	0	0	0	516	
7	0	0	0	0	540	5	0	0	0	0	487	11	0	0	0	0	475	
8	0	0	0	0	491	6	0	0	0	0	606	12	0	0	0	0	675	
9	0	0	0	0	572	7	0	0	0	0	438	13	0	0	0	0	460	
10	0	0	0	0	527	8	0	0	0	0	504	14	0	0	0	0	631	
11	0	0	0	0	592	9	0	0	0	0	422	15	0	0	0	0	478	
12	0	0	0	0	505	10	0	0	0	0	442	0	0	0	0	0	591	
13	0	0	0	0	450	11	0	0	0	0	647	1	0	0	0	0	431	
14	0	0	0	0	473	12	0	0	0	0	715	2	0	0	0	0	425	
15	0	0	0	0	553	13	0	0	0	0	432	3	0	0	0	0	449	
0	0	0	0	0	544	14	0	0	0	0	580	4	0	0	0	0	667	
1	0	0	0	0	503	15	0	0	0	0	286	5	0	0	0	0	553	
2	0	0	0	0	455	0	0	0	0	0	586	6	0	0	0	0	728	
3	0	0	0	0	529	1	0	0	0	0	368	7	0	0	0	0	500	
4	0	0	0	0	527	2	0	0	0	0	642	8	0	0	0	0	479	
5	0	0	0	0	410	3	0	0	0	0	542	9	0	0	0	0	268	
6	0	0	0	0	512	4	0	0	0	0	492	10	0	0	0	0	473	
7	0	0	0	0	480	5	0	0	0	0	361	11	0	0	0	0	481	
8	0	0	0	0	528	6	0	0	0	0	482	12	0	0	0	0	555	
9	0	0	0	0	519	7	0	0	0	0	714	13	0	0	0	0	517	
10	0	0	0	0	464	8	0	0	0	0	440	14	0	0	0	0	544	
11	0	0	0	0	510	9	0	0	0	0	435	15	0	0	0	0	420	
12	0	0	0	0	488	10	0	0	0	0	614	0	0	0	0	0	531	
13	0	0	0	0	566	11	0	0	0	0	580	1	0	0	0	0	568	
14	0	0	0	0	583	12	0	0	0	0	448	2	0	0	0	0	535	
15	0	0	0	0	480	13	0	0	0	0	516	3	0	0	0	0	452	
0	0	0	0	0	557	14	0	0	0	0	575	4	0	0	0	0	505	
1	0	0	0	0	416	15	0	0	0	0	363	5	0	0	0	0	499	
2	0	0	0	0	441	0	0	0	0	0	452	6	0	0	0	0	446	
3	0	0	0	0	568	1	0	0	0	0	566	7	0	0	0	0	577	
4	0	0	0	0	407	2	0	0	0	0	487	8	0	0	0	0	362	
5	0	0	0	0	566	3	0	0	0	0	391	9	0	0	0	0	611	
6	0	0	0	0	424	4	0	0	0	0	669	10	0	0	0	0	445	
7	0	0	0	0	624	5	0	0	0	0	257	11	0	0	0	0	506	
8	0	0	0	0	508	6	0	0	0	0	475	12	0	0	0	0	480	
9	0	0	0	0	412	7	0	0	0	0	496	13	0	0	0	0	496	
10	0	0	0	0	538	8	0	0	0	0	496	14	0	0	0	0	527	
11	0	0	0	0	642	9	0	0	0	0	587	15	0	0	0	0	463	
12	0	0	0	0	495	10	0	0	0	0	454	0	0	0	0	0	372	
13	0	0	0	0	468	11	0	0	0	0	523	1	0	0	0	0	405	
14	0	0	0	0	521	12	0	0	0	0	496	2	0	0	0	0	571	
15	0	0	0	0	625	13	0	0	0	0	500	3	0	0	0	0	576	
0	0	0	0	0	265	14	0	0	0	0	560	4	0	0	0	0	318	
1	0	0	0	0	456	15	0	0	0	0	468	5	0	0	0	0	634	
2	0	0	0	0	595	0	0	0	0	0	512	6	0	0	0	0	558	
3	0	0	0	0	359	1	0	0	0	0	473	7	0	0	0	0	176	
4	0	0	0	0	520	2	0	0	0	0	590	8	0	0	0	0	624	
5	0	0	0	0	501	3	0	0	0	0	219	9	0	0	0	0	384	
6	0	0	0	0	472	4	0	0	0	0	386	10	0	0	0	0	560	
7	0	0	0	0	510	5	0	0	0	0	575	11	0	0	0	0	523	
8	0	0	0	0	631	6	0	0	0	0	278	12	0	0	0	0	539	
9	0	0	0	0	555	7	0	0	0	0	473	13	0	0	0	0	567	
10	0	0	0	0	546	8	0	0	0	0	599	14	0	0	0	0	484	
11	0	0	0	0	486	9	0	0	0	0	368	15	0	0	0	0	370	
12	0	0	0	0	585	10	0	0	0	0	575	0	0	0	0	0	597	
13	0	0	0	0	495	11	0	0	0	0	797	1	0	0	0	0	512	
14	0	0	0	0	545	12	0	0	0	0	303	2	0	0	0	0	530	
15	0	0	0	0	500	13	0	0	0	0	745	3	0	0	0	0	576	
0	0	0	0	0	509	14	0	0	0	0	384	4	0	0	0	0	499	
1	0	0	0	0	531	15	0	0	0	0	456	5	0	0	0	0	476	
2	0	0	0	0	483	0	0	0	0	0	531	6	0	0	0	0	419	
3	0	0	0	0	473	1	0	0	0	0	298	7	0	0	0	0	481	
4	0	0	0	0	375	2	0	0	0	0	551	8	0	0	0	0	290	
5	0	0	0	0	558	3	0	0	0	0	356	9	0	0	0	0	456	
6	0	0	0	0	405	4	0	0	0	0	630	10	0	0	0	0	715	
7	0	0	0	0	578	5	0	0	0	0	420	11	0	0	0	0	527	
8	0	0	0	0	471	6	0	0	0	0	444	12	0	0	0	0	555	
9	0	0	0	0	529	7	0	0	0	0	532	13	0	0	0	0	466	
10	0	0	0	0	548	8	0	0	0	0	476	14	0	0	0	0	432	
11	0	0	0	0	515	9	0	0	0	0	472	15	0	0	0	0	561	
12	0	0	0	0	502	10	0	0	0	0	382	0	0	0	0	0	415	
13	0	0	0	0	448	11	0	0	0	0	527	1	0	0	0	0	414	
14	0	0	0	0	547	12	0	0	0	0	490	2	0	0	0	0	413	
15	0	0	0	0	632	13	0	0	0	0	368	3	0	0	0	0	495	
0	0	0	0	0	543	14	0	0	0	0	635	4	0	0	0	0	519	
1	0	0	0	0	515	15	0	0	0	0	432	5	0	0	0	0	580	
2	0	0	0	0	560	0	0	0	0	0	467	6	0	0	0	0	460	
3	0	0	0	0	466	1	0	0	0	0	559	7	0	0	0	0	535	
4	0	0	0	0	590	2	0	0	0	0	662	8	0	0	0	0	628	
5	0	0	0	0	617	3	0	0	0	0	514	9	0	0	0	0	506	
6	0	0	0	0	563	4	0	0	0	0	464	10	0	0	0	0	598	
7	0	0	0	0	536	5	0	0	0	0	573	11	0	0	0	0	581	
8	0	0	0	0	403	6	0	0	0	0	550	12	0	0	0	0	404	
9	0	0	0	0	561	7	0	0	0	0	345	13	0	0	0	0	449	
10	0	0	0	0	602	8	0	0	0	0	535	14	0	0	0	0	644	
11	0	0	0	0	472	9	0	0	0	0	323	15	0	0	0	0	473	
12	0	0	0	0	611	10	0	0	0	0	512	0	0	0	0	0	628	
13	0	0	0	0	465	11	0	0	0	0	675	1	0	0	0	0	385	
14	0	0	0	0	526	12	0	0	0	0	411	2	0	0	0	0	485	
15	0	0	0	0	361	13	0	0	0	0	658	3	0	0	0	0	7	
0	0	0	0	0	672	14	0	0	0	0	432	4	0	0	0	0	556	
1	0	0	0	0	443	15	0	0	0	0	504	5	0	0	0	0	136	
2	0	0	0	0	571	0	0	0	0	0	439	6	0	0	0	0	549	
3	0	0	0	0	464	1	0	0	0	0	464	7	0	0	0	0	680	
4	0	0	0	0	575	2	0	0	0	0	726	8	0	0	0	0	528	
5	0	0	0	0	440	3	0	0	0	0	400	9	0	0	0	0	503	
6	0	0	0	0	683	4	0	0	0	0	359	10	0	0	0	0	786	
7	0	0	0	0	593	5	0	0	0	0	719	11	0	0	0	0	484	
8	0	0	0	0	305	6	0	0	0	0	406	12	0	0	0	0	383	
9	0	0	0	0	462	7	0	0	0	0	518	13	0	0	0	0	641	
10	0	0	0	0	496	8	0	0	0	0	406	14	0	0	0	0	538	
11	0	0	0	0	447	9	0	0	0	0	583	15	0	0	0	0	508	
12	0	0	0	0	593	10	0	0	0	0	495	0	0	0	0	0	839	
13	0	0	0	0	551	11	0	0	0	0	417	1	0	0	0	0	479	
14	0	0	0	0	593	12	0	0	0	0	802	2	0	0	0	0	683	
15	0	0	0	0	541	13	0	0	0	0	420	3	0	0	0	0	452	
0	0	0	0	0	335	14	0	0	0	0	555	4	0	0	0	0	702	
1	0	0	0	0	598	15	0	0	0	0	572	5	0	0	0	0	604	
2	0	0	0	0	483	0	0	0	0	0	583	6	0	0	0	0	481	
3	0	0	0	0	483	1	0	0	0	0	484	7	0	0	0	0	427	
4	0	0	0	0	456	2	0	0	0	0	321	8	0	0	0	0	522	
5	0	0	0	0	675	3	0	0	0	0	362	9	0	0	0	0	584	
6	0	0	0	0	277	4	0	0	0	0	674	10	0	0	0	0	455	
7	0	0	0	0	535	5	0	0	0	0	363	11	0	0	0	0	623	
8	0	0	0	0	417	6	0	0	0	0	583	12	0	0	0	0	547	
9	0	0	0	0	527	7	0	0	0	0	446	13	0	0	0	0	543	
10	0	0	0	0	596	8	0	0	0	0	718	14	0	0	0	0	559	
11	0	0	0	0	466	9	0	0	0	0	312	15	0	0	0	0	488	
12	0	0	0	0	422	10	0	0	0	0	293	0	0	0	0	0	492	
13	0	0	0	0	628	11	0	0	0	0	491	1	0	0	0	0	640	
14	0	0	0	0	585	12	0	0	0	0	460	2	0	0	0	0	318	
15	0	0	0	0	576	13	0	0	0	0	466	3	0	0	0	0	681	
0	0	0	0	0	409	14	0	0	0	0	614	4	0	0	0	0	452	
1	0	0	0	0	586	15	0	0	0	0	672	5	0	0	0	0	814	
2	0	0	0	0	568	0	0	0	0	0	423	6	0	0	0	0	507	
3	0	0	0	0	429	1	0	0	0	0	572	7	0	0	0	0	530	
4	0	0	0	0	511	2	0	0	0	0	444	8	0	0	0	0	520	
5	0	0	0	0	495	3	0	0	0	0	712	9	0	0	0	0	474	
6	0	0	0	0	433	4	0	0	0	0	324	10	0	0	0	0	245	
7	0	0	0	0	550	5	0	0	0	0	585	11	0	0	0	0	618	
8	0	0	0	0	444	6	0	0	0	0	281	12	0	0	0	0	332	
9	0	0	0	0	560	7	0	0	0	0	506	13	0	0	0	0	584	
10	0	0	0	0	447	8	0	0	0	0	635	14	0	0	0	0	541	
11	0	0	0	0	553	9	0	0	0	0	658	15	0	0	0	0	490	
12	0	0	0	0	404	10	0	0	0	0	645	0	0	0	0	0	355	
13	0	0	0	0	614	11	0	0	0	0	296	1	0	0	0	0	521	
14	0	0	0	0	599	12	0	0	0	0	493	2	0	0	0	0	541	
15	0	0	0	0	561	13	0	0	0	0	550	3	0	0	0	0	704	
0	0	0	0	0	603	14	0	0	0	0	710	4	0	0	0	0	500	
1	0	0	0	0	478	15	0	0	0	0	322	5	0	0	0	0	255	
2	0	0	0	0	677	0	0	0	0	0	392	6	0	0	0	0	639	
3	0	0	0	0	567	1	0	0	0	0	541	7	0	0	0	0	529	
4	0	0	0	0	390	2	0	0	0	0	768	8	0	0	0	0	545	
5	0	0	0	0	611	3	0	0	0	0	377	9	0	0	0	0	669	
6	0	0	0	0	542	4	0	0	0	0	793	10	0	0	0	0	480	
7	0	0	0	0	419	5	0	0	0	0	314	11	0	0	0	0	539	
8	0	0	0	0	410	6	0	0	0	0	535	12	0	0	0	0	618	
9	0	0	0	0	563	7	0	0	0	0	408	13	0	0	0	0	678	
10	0	0	0	0	464	8	0	0	0	0	484	14	0	0	0	0	561	
11	0	0	0	0	509	9	0	0	0	0	448	15	0	0	0	0	558	
12	0	0	0	0	477	10	0	0	0	0	508	0	0	0	0	0	605	
13	0	0	0	0	587	11	0	0	0	0	449	1	0	0	0	0	490	
14	0	0	0	0	422	12	0	0	0	0	617	2	0	0	0	0	415	
15	0	0	0	0	499	13	0	0	0	0	313	3	0	0	0	0	560	
0	0	0	0	0	400	14	0	0	0	0	870	4	0	0	0	0	347	
1	0	0	0	0	531	15	0	0	0	0	127	5	0	0	0	0	551	
2	0	0	0	0	415	0	0	0	0	0	569	6	0	0	0	0	646	
3	0	0	0	0	584	1	0	0	0	0	571	7	0	0	0	0	529	
4	0	0	0	0	424	2	0	0	0	0	576	8	0	0	0	0	423	
5	0	0	0	0	520	3	0	0	0	0	536	9	0	0	0	0	554	
6	0	0	0	0	540	4	0	0	0	0	895	10	0	0	0	0	526	
7	0	0	0	0	496	5	0	0	0	0	482	11	0	0	0	0	513	
8	0	0	0	0	357	6	0	0	0	0	593	12	0	0	0	0	494	
9	0	0	0	0	557	7	0	0	0	0	191	13	0	0	0	0	527	
10	0	0	0	0	581	8	0	0	0	0	657	14	0	0	0	0	572	
11	0	0	0	0	611	9	0	0	0	0	437	15	0	0	0	0	527	
12	0	0	0	0	425	10	0	0	0	0	429	0	0	0	0	0	584	
13	0	0	0	0	571	11	0	0	0	0	786	1	0	0	0	0	538	
14	0	0	0	0	413	12	0	0	0	0	502	2	0	0	0	0	481	
15	0	0	0	0	545	13	0	0	0	0	398	3	0	0	0	0	604	
0	0	0	0	0	517	14	0	0	0	0	369	4	0	0	0	0	228	
1	0	0	0	0	524	15	0	0	0	0	663	5	0	0	0	0	562	
2	0	0	0	0	502	0	0	0	0	0	454	6	0	0	0	0	477	
3	0	0	0	0	535	1	0	0	0	0	528	7	0	0	0	0	522	
4	0	0	0	0	475	2	0	0	0	0	789	8	0	0	0	0	504	
5	0	0	0	0	563	3	0	0	0	0	419	9	0	0	0	0	540	
6	0	0	0	0	567	4	0	0	0	0	452	10	0	0	0	0	533	
7	0	0	0	0	479	5	0	0	0	0	688	11	0	0	0	0	517	
8	0	0	0	0	513	6	0	0	0	0	501	12	0	0	0	0	529	
9	0	0	0	0	493	7	0	0	0	0	834	13	0	0	0	0	521	
10	0	0	0	0	540	8	0	0	0	0	259	14	0	0	0	0	527	
11	0	0	0	0	398	9	0	0	0	0	492	15	0	0	0	0	256	
12	0	0	0	0	539	10	0	0	0	0	385	0	0	0	0	0	533	
13	0	0	0	0	542	11	0	0	0	0	273	1	0	0	0	0	486	
14	0	0	0	0	491	12	0	0	0	0	637	2	0	0	0	0	593	
15	0	0	0	0	498	13	0	0	0	0	640	3	0	0	0	0	502	
0	0	0	0	0	545	14	0	0	0	0	422	4	0	0	0	0	551	
1	0	0	0	0	587	15	0	0	0	0	823	5	0	0	0	0	503	
2	0	0	0	0	477	0	0	0	0	0	257	6	0	0	0	0	369	
3	0	0	0	0	507	1	0	0	0	0	579	7	0	0	0	0	537	
4	0	0	0	0	424	2	0	0	0	0	370	8	0	0	0	0	320	
5	0	0	0	0	554	3	0	0	0	0	748	9	0	0	0	0	594	
6	0	0	0	0	515	4	0	0	0	0	418	10	0	0	0	0	489	
7	0	0	0	0	357	5	0	0	0	0	494	11	0	0	0	0	380	
8	0	0	0	0	558	6	0	0	0	0	503	12	0	0	0	0	560	
9	0	0	0	0	580	7	0	0	0	0	604	13	0	0	0	0	487	
10	0	0	0	0	424	8	0	0	0	0	696	14	0	0	0	0	368	
11	0	0	0	0	497	9	0	0	0	0	468	15	0	0	0	0	598	
12	0	0	0	0	588	10	0	0	0	0	346	0	0	0	0	0	548	
13	0	0	0	0	490	11	0	0	0	0	814	1	0	0	0	0	444	
14	0	0	0	0	575	12	0	0	0	0	513	2	0	0	0	0	533	
15	0	0	0	0	477	13	0	0	0	0	1022	3	0	0	0	0	480	
0	0	0	0	0	568	14	0	0	0	0	368	4	0	0	0	0	548	
1	0	0	0	0	451	15	0	0	0	0	541	5	0	0	0	0	525	
2	0	0	0	0	537	0	0	0	0	0	515	6	0	0	0	0	495	
3	0	0	0	0	515	1	0	0	0	0	639	7	0	0	0	0	519	
4	0	0	0	0	408	2	0	0	0	0	371	8	0	0	0	0	588	
5	0	0	0	0	562	3	0	0	0	0	534	9	0	0	0	0	568	
6	0	0	0	0	413	4	0	0	0	0	482	10	0	0	0	0	471	
7	0	0	0	0	536	5	0	0	0	0	473	11	0	0	0	0	611	
8	0	0	0	0	531	6	0	0	0	0	309	12	0	0	0	0	478	
9	0	0	0	0	506	7	0	0	0	0	543	13	0	0	0	0	558	
10	0	0	0	0	522	8	0	0	0	0	527	14	0	0	0	0	590	
11	0	0	0	0	564	9	0	0	0	0	565	15	0	0	0	0	436	
12	0	0	0	0	556	10	0	0	0	0	516	0	0	0	0	0	550	
13	0	0	0	0	455	11	0	0	0	0	666	1	0	0	0	0	573	
14	0	0	0	0	619	12	0	0	0	0	453	2	0	0	0	0	577	
15	0	0	0	0	497	13	0	0	0	0	760	3	0	0	0	0	467	
0	0	0	0	0	406	14	0	0	0	0	395	4	0	0	0	0	405	
1	0	0	0	0	664	15	0	0	0	0	610	5	0	0	0	0	639	
2	0	0	0	0	525	0	0	0	0	0	505	6	0	0	0	0	479	
3	0	0	0	0	591	1	0	0	0	0	523	7	0	0	0	0	597	
4	0	0	0	0	456	2	0	0	0	0	468	8	0	0	0	0	504	
5	0	0	0	0	452	3	0	0	0	0	455	9	0	0	0	0	489	
6	0	0	0	0	446	4	0	0	0	0	584	10	0	0	0	0	648	
7	0	0	0	0	568	5	0	0	0	0	452	11	0	0	0	0	553	
8	0	0	0	0	619	6	0	0	0	0	477	12	0	0	0	0	572	
9	0	0	0	0	484	7	0	0	0	0	707	13	0	0	0	0	271	
10	0	0	0	0	530	8	0	0	0	0	425	14	0	0	0	0	576	
11	0	0	0	0	436	9	0	0	0	0	675	15	0	0	0	0	461	
12	0	0	0	0	557	10	0	0	0	0	410	0	0	0	0	0	395	
13	0	0	0	0	500	11	0	0	0	0	493	1	0	0	0	0	458	
14	0	0	0	0	507	12	0	0	0	0	565	2	0	0	0	0	502	
15	0	0	0	0	515	13	0	0	0	0	446	3	0	0	0	0	528	
0	0	0	0	0	478	14	0	0	0	0	501	4	0	0	0	0	425	
1	0	0	0	0	566	15	0	0	0	0	444	5	0	0	0	0	479	
2	0	0	0	0	502	0	0	0	0	0	490	6	0	0	0	0	542	
3	0	0	0	0	543	1	0	0	0	0	511	7	0	0	0	0	428	
4	0	0	0	0	283	2	0	0	0	0	342	8	0	0	0	0	380	
5	0	0	0	0	615	3	0	0	0	0	588	9	0	0	0	0	552	
6	0	0	0	0	557	4	0	0	0	0	555	10	0	0	0	0	463	
7	0	0	0	0	463	5	0	0	0	0	390	11	0	0	0	0	615	
8	0	0	0	0	526	6	0	0	0	0	627	12	0	0	0	0	589	
9	0	0	0	0	615	7	0	0	0	0	301	13	0	0	0	0	740	
10	0	0	0	0	398	8	0	0	0	0	601	14	0	0	0	0	482	
11	0	0	0	0	558	9	0	0	0	0	353	15	0	0	0	0	597	
12	0	0	0	0	632	10	0	0	0	0	493	0	0	0	0	0	494	
13	0	0	0	0	541	11	0	0	0	0	534	1	0	0	0	0	583	
14	0	0	0	0	440	12	0	0	0	0	403	2	0	0	0	0	384	
15	0	0	0	0	551	13	0	0	0	0	545	3	0	0	0	0	594	
0	0	0	0	0	553	14	0	0	0	0	477	4	0	0	0	0	496	
1	0	0	0	0	519	15	0	0	0	0	422	5	0	0	0	0	638	
2	0	0	0	0	617	0	0	0	0	0	824	6	0	0	0	0	588	
3	0	0	0	0	529	1	0	0	0	0	313	7	0	0	0	0	560	
4	0	0	0	0	489	2	0	0	0	0	472	8	0	0	0	0	532	
5	0	0	0	0	527	3	0	0	0	0	470	9	0	0	0	0	515	
6	0	0	0	0	528	4	0	0	0	0	646	10	0	0	0	0	548	
7	0	0	0	0	496	5	0	0	0	0	509	11	0	0	0	0	456	
8	0	0	0	0	618	6	0	0	0	0	459	12	0	0	0	0	572	
9	0	0	0	0	510	7	0	0	0	0	468	13	0	0	0	0	513	
10	0	0	0	0	503	8	0	0	0	0	552	14	0	0	0	0	505	
11	0	0	0	0	493	9	0	0	0	0	551	15	0	0	0	0	542	
12	0	0	0	0	494	10	0	0	0	0	535	0	0	0	0	0	389	
13	0	0	0	0	433	11	0	0	0	0	441	1	0	0	0	0	476	
14	0	0	0	0	521	12	0	0	0	0	521	2	0	0	0	0	491	
15	0	0	0	0	520	13	0	0	0	0	401	3	0	0	0	0	495	
0	0	0	0	0	513	14	0	0	0	0	524	4	0	0	0	0	480	
1	0	0	0	0	412	15	0	0	0	0	683	5	0	0	0	0	491	
2	0	0	0	0	546	0	0	0	0	0	197	6	0	0	0	0	533	
3	0	0	0	0	398	1	0	0	0	0	478	7	0	0	0	0	511	
4	0	0	0	0	564	2	0	0	0	0	408	8	0	0	0	0	517	
5	0	0	0	0	463	3	0	0	0	0	440	9	0	0	0	0	422	
6	0	0	0	0	532	4	0	0	0	0	500	10	0	0	0	0	492	
7	0	0	0	0	504	5	0	0	0	0	415	11	0	0	0	0	488	
8	0	0	0	0	460	6	0	0	0	0	473	12	0	0	0	0	380	
9	0	0	0	0	575	7	0	0	0	0	320	13	0	0	0	0	548	
10	0	0	0	0	457	8	0	0	0	0	519	14	0	0	0	0	332	
11	0	0	0	0	600	9	0	0	0	0	649	15	0	0	0	0	614	
12	0	0	0	0	607	10	0	0	0	0	224	0	0	0	0	0	537	
13	0	0	0	0	408	11	0	0	0	0	522	1	0	0	0	0	326	
14	0	0	0	0	477	12	0	0	0	0	432	2	0	0	0	0	568	
15	0	0	0	0	617	13	0	0	0	0	520	3	0	0	0	0	555	
0	0	0	0	0	530	14	0	0	0	0	603	4	0	0	0	0	472	
1	0	0	0	0	458	15	0	0	0	0	465	5	0	0	0	0	478	
2	0	0	0	0	553	0	0	0	0	0	576	6	0	0	0	0	476	
3	0	0	0	0	418	1	0	0	0	0	318	7	0	0	0	0	405	
4	0	0	0	0	548	2	0	0	0	0	559	8	0	0	0	0	558	
5	0	0	0	0	450	3	0	0	0	0	607	9	0	0	0	0	542	
6	0	0	0	0	526	4	0	0	0	0	388	10	0	0	0	0	572	
7	0	0	0	0	414	5	0	0	0	0	518	11	0	0	0	0	386	
8	0	0	0	0	543	6	0	0	0	0	515	12	0	0	0	0	555	
9	0	0	0	0	514	7	0	0	0	0	577	13	0	0	0	0	584	
10	0	0	0	0	448	8	0	0	0	0	442	14	0	0	0	0	532	
11	0	0	0	0	542	9	0	0	0	0	432	15	0	0	0	0	525	
12	0	0	0	0	506	10	0	0	0	0	567	0	0	0	0	0	475	
13	0	0	0	0	513	11	0	0	0	0	438	1	0	0	0	0	495	
14	0	0	0	0	492	12	0	0	0	0	310	2	0	0	0	0	519	
15	0	0	0	0	501	13	0	0	0	0	597	3	0	0	0	0	563	
0	0	0	0	0	590	14	0	0	0	0	376	4	0	0	0	0	604	
1	0	0	0	0	593	15	0	0	0	0	701	5	0	0	0	0	506	
2	0	0	0	0	463	0	0	0	0	0	389	6	0	0	0	0	462	
3	0	0	0	0	562	1	0	0	0	0	591	7	0	0	0	0	691	
4	0	0	0	0	531	2	0	0	0	0	413	8	0	0	0	0	465	
5	0	0	0	0	505	3	0	0	0	0	560	9	0	0	0	0	565	
6	0	0	0	0	525	4	0	0	0	0	329	10	0	0	0	0	488	
7	0	0	0	0	487	5	0	0	0	0	530	11	0	0	0	0	541	
8	0	0	0	0	513	6	0	0	0	0	253	12	0	0	0	0	551	
9	0	0	0	0	563	7	0	0	0	0	609	13	0	0	0	0	484	
10	0	0	0	0	401	8	0	0	0	0	320	14	0	0	0	0	140	
11	0	0	0	0	632	9	0	0	0	0	518	15	0	0	0	0	608	
12	0	0	0	0	476	10	0	0	0	0	390	0	0	0	0	0	295	
13	0	0	0	0	510	11	0	0	0	0	539	1	0	0	0	0	617	
14	0	0	0	0	397	12	0	0	0	0	554	2	0	0	0	0	479	
15	0	0	0	0	555	13	0	0	0	0	387	3	0	0	0	0	638	
0	0	0	0	0	505	14	0	0	0	0	439	4	0	0	0	0	477	
1	0	0	0	0	566	15	0	0	0	0	475	5	0	0	0	0	572	
2	0	0	0	0	484	0	0	0	0	0	504	6	0	0	0	0	490	
3	0	0	0	0	519	1	0	0	0	0	467	7	0	0	0	0	633	
4	0	0	0	0	462	2	0	0	0	0	431	8	0	0	0	0	492	
5	0	0	0	0	554	3	0	0	0	0	486	9	0	0	0	0	434	
6	0	0	0	0	502	4	0	0	0	0	543	10	0	0	0	0	321	
7	0	0	0	0	497	5	0	0	0	0	472	11	0	0	0	0	577	
8	0	0	0	0	433	6	0	0	0	0	553	12	0	0	0	0	513	
9	0	0	0	0	374	7	0	0	0	0	449	13	0	0	0	0	420	
10	0	0	0	0	471	8	0	0	0	0	595	14	0	0	0	0	532	
11	0	0	0	0	482	9	0	0	0	0	419	15	0	0	0	0	564	
12	0	0	0	0	465	10	0	0	0	0	502	0	0	0	0	0	433	
13	0	0	0	0	534	11	0	0	0	0	493	1	0	0	0	0	590	
14	0	0	0	0	610	12	0	0	0	0	670	2	0	0	0	0	467	
15	0	0	0	0	396	13	0	0	0	0	528	3	0	0	0	0	260	
0	0	0	0	0	499	14	0	0	0	0	491	4	0	0	0	0	579	
1	0	0	0	0	543	15	0	0	0	0	542	5	0	0	0	0	536	
2	0	0	0	0	442	0	0	0	0	0	451	6	0	0	0	0	432	
3	0	0	0	0	615	1	0	0	0	0	536	7	0	0	0	0	509	
4	0	0	0	0	531	2	0	0	0	0	533	8	0	0	0	0	612	
5	0	0	0	0	474	3	0	0	0	0	554	9	0	0	0	0	419	
6	0	0	0	0	623	4	0	0	0	0	583	10	0	0	0	0	650	
7	0	0	0	0	489	5	0	0	0	0	391	11	0	0	0	0	120	
8	0	0	0	0	601	6	0	0	0	0	442	12	0	0	0	0	624	
9	0	0	0	0	541	7	0	0	0	0	299	13	0	0	0	0	593	
10	0	0	0	0	652	8	0	0	0	0	467	14	0	0	0	0	542	
11	0	0	0	0	465	9	0	0	0	0	552	15	0	0	0	0	415	
12	0	0	0	0	437	10	0	0	0	0	477	0	0	0	0	0	392	
13	0	0	0	0	547	11	0	0	0	0	364	1	0	0	0	0	523	
14	0	0	0	0	304	12	0	0	0	0	452	2	0	0	0	0	503	
15	0	0	0	0	468	13	0	0	0	0	466	3	0	0	0	0	466	
0	0	0	0	0	463	14	0	0	0	0	526	4	0	0	0	0	645	
1	0	0	0	0	499	15	0	0	0	0	473	5	0	0	0	0	506	
2	0	0	0	0	690	0	0	0	0	0	664	6	0	0	0	0	579	
3	0	0	0	0	498	1	0	0	0	0	471	7	0	0	0	0	327	
4	0	0	0	0	469	2	0	0	0	0	453	8	0	0	0	0	707	
5	0	0	0	0	599	3	0	0	0	0	519	9	0	0	0	0	607	
6	0	0	0	0	561	4	0	0	0	0	510	10	0	0	0	0	486	
7	0	0	0	0	457	5	0	0	0	0	465	11	0	0	0	0	543	
8	0	0	0	0	626	6	0	0	0	0	561	12	0	0	0	0	581	
9	0	0	0	0	459	7	0	0	0	0	431	13	0	0	0	0	466	
10	0	0	0	0	732	8	0	0	0	0	578	14	0	0	0	0	674	
11	0	0	0	0	614	9	0	0	0	0	355	15	0	0	0	0	493	
12	0	0	0	0	581	10	0	0	0	0	454	0	0	0	0	0	592	
13	0	0	0	0	496	11	0	0	0	0	511	1	0	0	0	0	352	
14	0	0	0	0	532	12	0	0	0	0	337	2	0	0	0	0	555	
15	0	0	0	0	463	13	0	0	0	0	545	3	0	0	0	0	465	
0	0	0	0	0	518	14	0	0	0	0	441	4	0	0	0	0	576	
1	0	0	0	0	503	15	0	0	0	0	284	5	0	0	0	0	556	
2	0	0	0	0	580	0	0	0	0	0	630	6	0	0	0	0	585	
3	0	0	0	0	566	1	0	0	0	0	428	7	0	0	0	0	534	
4	0	0	0	0	451	2	0	0	0	0	502	8	0	0	0	0	617	
5	0	0	0	0	528	3	0	0	0	0	730	9	0	0	0	0	543	
6	0	0	0	0	559	4	0	0	0	0	357	10	0	0	0	0	515	
7	0	0	0	0	344	5	0	0	0	0	560	11	0	0	0	0	181	
8	0	0	0	0	608	6	0	0	0	0	464	12	0	0	0	0	543	
9	0	0	0	0	379	7	0	0	0	0	552	13	0	0	0	0	135	
10	0	0	0	0	657	8	0	0	0	0	332	14	0	0	0	0	590	
11	0	0	0	0	495	9	0	0	0	0	497	15	0	0	0	0	435	
12	0	0	0	0	524	10	0	0	0	0	530	0	0	0	0	0	554	
13	0	0	0	0	523	11	0	0	0	0	448	1	0	0	0	0	516	
14	0	0	0	0	556	12	0	0	0	0	277	2	0	0	0	0	604	
15	0	0	0	0	434	13	0	0	0	0	517	3	0	0	0	0	460	
0	0	0	0	0	569	14	0	0	0	0	487	4	0	0	0	0	568	
1	0	0	0	0	366	15	0	0	0	0	475	5	0	0	0	0	583	
2	0	0	0	0	669	0	0	0	0	0	464	6	0	0	0	0	597	
3	0	0	0	0	527	1	0	0	0	0	695	7	0	0	0	0	466	
4	0	0	0	0	596	2	0	0	0	0	515	8	0	0	0	0	612	
5	0	0	0	0	454	3	0	0	0	0	223	9	0	0	0	0	427	
6	0	0	0	0	545	4	0	0	0	0	559	10	0	0	0	0	559	
7	0	0	0	0	445	5	0	0	0	0	494	11	0	0	0	0	419	
8	0	0	0	0	576	6	0	0	0	0	565	12	0	0	0	0	527	
9	0	0	0	0	547	7	0	0	0	0	431	13	0	0	0	0	546	
10	0	0	0	0	527	8	0	0	0	0	617	14	0	0	0	0	334	
11	0	0	0	0	525	9	0	0	0	0	528	15	0	0	0	0	662	
12	0	0	0	0	433	10	0	0	0	0	352	0	0	0	0	0	462	
13	0	0	0	0	544	11	0	0	0	0	483	1	0	0	0	0	623	
14	0	0	0	0	574	12	0	0	0	0	578	2	0	0	0	0	522	
15	0	0	0	0	597	13	0	0	0	0	363	3	0	0	0	0	637	
0	0	0	0	0	476	14	0	0	0	0	565	4	0	0	0	0	520	
1	0	0	0	0	521	15	0	0	0	0	374	5	0	0	0	0	561	
2	0	0	0	0	499	0	0	0	0	0	517	6	0	0	0	0	444	
3	0	0	0	0	481	1	0	0	0	0	569	7	0	0	0	0	553	
4	0	0	0	0	533	2	0	0	0	0	401	8	0	0	0	0	363	
5	0	0	0	0	438	3	0	0	0	0	615	9	0	0	0	0	596	
6	0	0	0	0	506	4	0	0	0	0	511	10	0	0	0	0	565	
7	0	0	0	0	484	5	0	0	0	0	554	11	0	0	0	0	356	
8	0	0	0	0	620	6	0	0	0	0	592	12	0	0	0	0	649	
9	0	0	0	0	535	7	0	0	0	0	759	13	0	0	0	0	496	
10	0	0	0	0	613	8	0	0	0	0	586	14	0	0	0	0	647	
11	0	0	0	0	469	9	0	0	0	0	609	15	0	0	0	0	511	
12	0	0	0	0	480	10	0	0	0	0	436	0	0	0	0	0	397	
13	0	0	0	0	530	11	0	0	0	0	390	1	0	0	0	0	649	
14	0	0	0	0	528	12	0	0	0	0	405	2	0	0	0	0	583	
15	0	0	0	0	524	13	0	0	0	0	533	3	0	0	0	0	474	
0	0	0	0	0	472	14	0	0	0	0	558	4	0	0	0	0	642	
1	0	0	0	0	496	15	0	0	0	0	469	5	0	0	0	0	454	
2	0	0	0	0	529	0	0	0	0	0	587	6	0	0	0	0	473	
3	0	0	0	0	387	1	0	0	0	0	400	7	0	0	0	0	238	
4	0	0	0	0	494	2	0	0	0	0	891	8	0	0	0	0	402	
5	0	0	0	0	552	3	0	0	0	0	393	9	0	0	0	0	593	
6	0	0	0	0	494	4	0	0	0	0	488	10	0	0	0	0	524	
7	0	0	0	0	656	5	0	0	0	0	363	11	0	0	0	0	527	
8	0	0	0	0	416	6	0	0	0	0	503	12	0	0	0	0	399	
9	0	0	0	0	356	7	0	0	0	0	434	13	0	0	0	0	618	
10	0	0	0	0	681	8	0	0	0	0	468	14	0	0	0	0	577	
11	0	0	0	0	379	9	0	0	0	0	721	15	0	0	0	0	388	
12	0	0	0	0	598	10	0	0	0	0	491	0	0	0	0	0	670	
13	0	0	0	0	359	11	0	0	0	0	502	1	0	0	0	0	406	
14	0	0	0	0	514	12	0	0	0	0	457	2	0	0	0	0	442	
15	0	0	0	0	692	13	0	0	0	0	359	3	0	0	0	0	527	
0	0	0	0	0	427	14	0	0	0	0	524	4	0	0	0	0	568	
1	0	0	0	0	544	15	0	0	0	0	367	5	0	0	0	0	495	
2	0	0	0	0	541	0	0	0	0	0	476	6	0	0	0	0	558	
3	0	0	0	0	428	1	0	0	0	0	491	7	0	0	0	0	201	
4	0	0	0	0	610	2	0	0	0	0	616	8	0	0	0	0	692	
5	0	0	0	0	496	3	0	0	0	0	369	9	0	0	0	0	575	
6	0	0	0	0	565	4	0	0	0	0	595	10	0	0	0	0	407	
7	0	0	0	0	467	5	0	0	0	0	268	11	0	0	0	0	223	
8	0	0	0	0	612	6	0	0	0	0	687	12	0	0	0	0	563	
9	0	0	0	0	198	7	0	0	0	0	383	13	0	0	0	0	514	
10	0	0	0	0	604	8	0	0	0	0	584	14	0	0	0	0	640	
11	0	0	0	0	296	9	0	0	0	0	511	15	0	0	0	0	385	
12	0	0	0	0	580	10	0	0	0	0	837	0	0	0	0	0	633	
13	0	0	0	0	500	11	0	0	0	0	374	1	0	0	0	0	669	
14	0	0	0	0	658	12	0	0	0	0	518	2	0	0	0	0	553	
15	0	0	0	0	458	13	0	0	0	0	325	3	0	0	0	0	532	
0	0	0	0	0	572	14	0	0	0	0	540	4	0	0	0	0	536	
1	0	0	0	0	535	15	0	0	0	0	354	5	0	0	0	0	274	
2	0	0	0	0	571	0	0	0	0	0	605	6	0	0	0	0	694	
3	0	0	0	0	467	1	0	0	0	0	683	7	0	0	0	0	545	
4	0	0	0	0	583	2	0	0	0	0	433	8	0	0	0	0	677	
5	0	0	0	0	512	3	0	0	0	0	624	9	0	0	0	0	489	
6	0	0	0	0	523	4	0	0	0	0	318	10	0	0	0	0	447	
7	0	0	0	0	548	5	0	0	0	0	595	11	0	0	0	0	600	
8	0	0	0	0	504	6	0	0	0	0	448	12	0	0	0	0	221	
9	0	0	0	0	475	7	0	0	0	0	636	13	0	0	0	0	556	
10	0	0	0	0	548	8	0	0	0	0	362	14	0	0	0	0	583	
11	0	0	0	0	545	9	0	0	0	0	597	15	0	0	0	0	391	
12	0	0	0	0	263	10	0	0	0	0	660	0	0	0	0	0	378	
13	0	0	0	0	651	11	0	0	0	0	475	1	0	0	0	0	620	
14	0	0	0	0	433	12	0	0	0	0	659	2	0	0	0	0	243	
15	0	0	0	0	525	13	0	0	0	0	517	3	0	0	0	0	623	
0	0	0	0	0	449	14	0	0	0	0	507	4	0	0	0	0	392	
1	0	0	0	0	503	15	0	0	0	0	497	5	0	0	0	0	544	
2	0	0	0	0	427	0	0	0	0	0	587	6	0	0	0	0	423	
3	0	0	0	0	600	1	0	0	0	0	207	7	0	0	0	0	649	
4	0	0	0	0	521	2	0	0	0	0	451	8	0	0	0	0	460	
5	0	0	0	0	537	3	0	0	0	0	416	9	0	0	0	0	591	
6	0	0	0	0	481	4	0	0	0	0	575	10	0	0	0	0	319	
7	0	0	0	0	641	5	0	0	0	0	434	11	0	0	0	0	664	
8	0	0	0	0	438	6	0	0	0	0	545	12	0	0	0	0	354	
9	0	0	0	0	563	7	0	0	0	0	366	13	0	0	0	0	536	
10	0	0	0	0	394	8	0	0	0	0	354	14	0	0	0	0	475	
11	0	0	0	0	535	9	0	0	0	0	569	15	0	0	0	0	515	
12	0	0	0	0	144	10	0	0	0	0	412	0	0	0	0	0	527	
13	0	0	0	0	606	11	0	0	0	0	494	1	0	0	0	0	573	
14	0	0	0	0	398	12	0	0	0	0	454	2	0	0	0	0	567	
15	0	0	0	0	522	13	0	0	0	0	419	3	0	0	0	0	492	
0	0	0	0	0	506	14	0	0	0	0	564	4	0	0	0	0	556	
1	0	0	0	0	417	15	0	0	0	0	603	5	0	0	0	0	267	
2	0	0	0	0	546	0	0	0	0	0	587	6	0	0	0	0	681	
3	0	0	0	0	504	1	0	0	0	0	510	7	0	0	0	0	510	
4	0	0	0	0	479	2	0	0	0	0	652	8	0	0	0	0	468	
5	0	0	0	0	644	3	0	0	0	0	526	9	0	0	0	0	506	
6	0	0	0	0	382	4	0	0	0	0	489	10	0	0	0	0	90	
7	0	0	0	0	514	5	0	0	0	0	341	11	0	0	0	0	544	
8	0	0	0	0	516	6	0	0	0	0	456	12	0	0	0	0	479	
9	0	0	0	0	455	7	0	0	0	0	563	13	0	0	0	0	419	
10	0	0	0	0	600	8	0	0	0	0	541	14	0	0	0	0	603	
11	0	0	0	0	391	9	0	0	0	0	393	15	0	0	0	0	463	
12	0	0	0	0	577	10	0	0	0	0	577	0	0	0	0	0	534	
13	0	0	0	0	531	11	0	0	0	0	460	1	0	0	0	0	532	
14	0	0	0	0	563	12	0	0	0	0	494	2	0	0	0	0	549	
15	0	0	0	0	448	13	0	0	0	0	640	3	0	0	0	0	478	
0	0	0	0	0	529	14	0	0	0	0	477	4	0	0	0	0	436	
1	0	0	0	0	505	15	0	0	0	0	376	5	0	0	0	0	563	
2	0	0	0	0	488	0	0	0	0	0	533	6	0	0	0	0	538	
3	0	0	0	0	536	1	0	0	0	0	457	7	0	0	0	0	529	
4	0	0	0	0	510	2	0	0	0	0	972	8	0	0	0	0	472	
5	0	0	0	0	454	3	0	0	0	0	319	9	0	0	0	0	471	
6	0	0	0	0	515	4	0	0	0	0	870	10	0	0	0	0	605	
7	0	0	0	0	462	5	0	0	0	0	435	11	0	0	0	0	468	
8	0	0	0	0	573	6	0	0	0	0	563	12	0	0	0	0	595	
9	0	0	0	0	615	7	0	0	0	0	488	13	0	0	0	0	540	
10	0	0	0	0	479	8	0	0	0	0	681	14	0	0	0	0	304	
11	0	0	0	0	535	9	0	0	0	0	359	15	0	0	0	0	595	
12	0	0	0	0	526	10	0	0	0	0	560	0	0	0	0	0	420	
13	0	0	0	0	556	11	0	0	0	0	277	1	0	0	0	0	346	
14	0	0	0	0	479	12	0	0	0	0	678	2	0	0	0	0	647	
15	0	0	0	0	520	13	0	0	0	0	579	3	0	0	0	0	583	
0	0	0	0	0	633	14	0	0	0	0	469	4	0	0	0	0	527	
1	0	0	0	0	441	15	0	0	0	0	527	5	0	0	0	0	342	
2	0	0	0	0	543	0	0	0	0	0	450	6	0	0	0	0	633	
3	0	0	0	0	441	1	0	0	0	0	628	7	0	0	0	0	391	
4	0	0	0	0	533	2	0	0	0	0	324	8	0	0	0	0	587	
5	0	0	0	0	502	3	0	0	0	0	516	9	0	0	0	0	513	
6	0	0	0	0	474	4	0	0	0	0	328	10	0	0	0	0	484	
7	0	0	0	0	530	5	0	0	0	0	541	11	0	0	0	0	531	
8	0	0	0	0	439	6	0	0	0	0	325	12	0	0	0	0	481	
9	0	0	0	0	478	7	0	0	0	0	451	13	0	0	0	0	493	
10	0	0	0	0	479	8	0	0	0	0	525	14	0	0	0	0	617	
11	0	0	0	0	538	9	0	0	0	0	454	15	0	0	0	0	562	
12	0	0	0	0	435	10	0	0	0	0	326	0	0	0	0	0	303	
13	0	0	0	0	556	11	0	0	0	0	727	1	0	0	0	0	578	
14	0	0	0	0	531	12	0	0	0	0	268	2	0	0	0	0	486	
15	0	0	0	0	461	13	0	0	0	0	557	3	0	0	0	0	507	
0	0	0	0	0	529	14	0	0	0	0	540	4	0	0	0	0	404	
1	0	0	0	0	489	15	0	0	0	0	545	5	0	0	0	0	492	
2	0	0	0	0	519	0	0	0	0	0	371	6	0	0	0	0	529	
3	0	0	0	0	527	1	0	0	0	0	560	7	0	0	0	0	530	
4	0	0	0	0	340	2	0	0	0	0	430	8	0	0	0	0	335	
5	0	0	0	0	512	3	0	0	0	0	513	9	0	0	0	0	568	
6	0	0	0	0	547	4	0	0	0	0	476	10	0	0	0	0	543	
7	0	0	0	0	555	5	0	0	0	0	1023	11	0	0	0	0	603	
8	0	0	0	0	451	6	0	0	0	0	315	12	0	0	0	0	521	
9	0	0	0	0	492	7	0	0	0	0	609	13	0	0	0	0	550	
10	0	0	0	0	532	8	0	0	0	0	458	14	0	0	0	0	557	
11	0	0	0	0	609	9	0	0	0	0	367	15	0	0	0	0	524	
12	0	0	0	0	285	10	0	0	0	0	608	0	0	0	0	0	376	
13	0	0	0	0	588	11	0	0	0	0	542	1	0	0	0	0	532	
14	0	0	0	0	480	12	0	0	0	0	568	2	0	0	0	0	540	
15	0	0	0	0	427	13	0	0	0	0	441	3	0	0	0	0	590	
0	0	0	0	0	537	14	0	0	0	0	412	4	0	0	0	0	578	
1	0	0	0	0	480	15	0	0	0	0	579	5	0	0	0	0	508	
2	0	0	0	0	512	0	0	0	0	0	465	6	0	0	0	0	442	
3	0	0	0	0	512	1	0	0	0	0	514	7	0	0	0	0	569	
4	0	0	0	0	531	2	0	0	0	0	588	8	0	0	0	0	481	
5	0	0	0	0	559	3	0	0	0	0	321	9	0	0	0	0	579	
6	0	0	0	0	499	4	0	0	0	0	532	10	0	0	0	0	524	
7	0	0	0	0	622	5	0	0	0	0	352	11	0	0	0	0	560	
8	0	0	0	0	297	6	0	0	0	0	570	12	0	0	0	0	263	
9	0	0	0	0	539	7	0	0	0	0	381	13	0	0	0	0	570	
10	0	0	0	0	553	8	0	0	0	0	457	14	0	0	0	0	519	
11	0	0	0	0	480	9	0	0	0	0	547	15	0	0	0	0	363	
12	0	0	0	0	559	10	0	0	0	0	439	0	0	0	0	0	568	
13	0	0	0	0	541	11	0	0	0	0	510	1	0	0	0	0	518	
14	0	0	0	0	422	12	0	0	0	0	491	2	0	0	0	0	332	
15	0	0	0	0	541	13	0	0	0	0	426	3	0	0	0	0	554	
0	0	0	0	0	455	14	0	0	0	0	619	4	0	0	0	0	552	
1	0	0	0	0	487	15	0	0	0	0	538	5	0	0	0	0	444	
2	0	0	0	0	245	0	0	0	0	0	536	6	0	0	0	0	285	
3	0	0	0	0	547	1	0	0	0	0	419	7	0	0	0	0	551	
4	0	0	0	0	428	2	0	0	0	0	379	8	0	0	0	0	441	
5	0	0	0	0	532	3	0	0	0	0	786	9	0	0	0	0	449	
6	0	0	0	0	579	4	0	0	0	0	379	10	0	0	0	0	511	
7	0	0	0	0	521	5	0	0	0	0	494	11	0	0	0	0	601	
8	0	0	0	0	504	6	0	0	0	0	603	12	0	0	0	0	585	
9	0	0	0	0	596	7	0	0	0	0	726	13	0	0	0	0	543	
10	0	0	0	0	436	8	0	0	0	0	605	14	0	0	0	0	197	
11	0	0	0	0	528	9	0	0	0	0	299	15	0	0	0	0	561	
12	0	0	0	0	563	10	0	0	0	0	628	0	0	0	0	0	641	
13	0	0	0	0	634	11	0	0	0	0	415	1	0	0	0	0	609	
14	0	0	0	0	526	12	0	0	0	0	631	2	0	0	0	0	622	
15	0	0	0	0	566	13	0	0	0	0	521	3	0	0	0	0	418	
0	0	0	0	0	588	14	0	0	0	0	573	4	0	0	0	0	508	
1	0	0	0	0	610	15	0	0	0	0	451	5	0	0	0	0	671	
2	0	0	0	0	550	0	0	0	0	0	455	6	0	0	0	0	616	
3	0	0	0	0	531	1	0	0	0	0	637	7	0	0	0	0	443	
4	0	0	0	0	489	2	0	0	0	0	557	8	0	0	0	0	281	
5	0	0	0	0	571	3	0	0	0	0	411	9	0	0	0	0	597	
6	0	0	0	0	450	4	0	0	0	0	499	10	0	0	0	0	502	
7	0	0	0	0	551	5	0	0	0	0	729	11	0	0	0	0	487	
8	0	0	0	0	296	6	0	0	0	0	392	12	0	0	0	0	475	
9	0	0	0	0	638	7	0	0	0	0	487	13	0	0	0	0	661	
10	0	0	0	0	412	8	0	0	0	0	396	14	0	0	0	0	420	
11	0	0	0	0	536	9	0	0	0	0	523	15	0	0	0	0	510	
12	0	0	0	0	645	10	0	0	0	0	527	0	0	0	0	0	481	
13	0	0	0	0	540	11	0	0	0	0	417	1	0	0	0	0	396	
14	0	0	0	0	439	12	0	0	0	0	560	2	0	0	0	0	461	
15	0	0	0	0	647	13	0	0	0	0	529	3	0	0	0	0	601	
0	0	0	0	0	533	14	0	0	0	0	535	4	0	0	0	0	520	
1	0	0	0	0	577	15	0	0	0	0	599	5	0	0	0	0	585	
2	0	0	0	0	446	0	0	0	0	0	352	6	0	0	0	0	448	
3	0	0	0	0	365	1	0	0	0	0	587	7	0	0	0	0	493	
4	0	0	0	0	557	2	0	0	0	0	360	8	0	0	0	0	650	
5	0	0	0	0	527	3	0	0	0	0	517	9	0	0	0	0	582	
6	0	0	0	0	438	4	0	0	0	0	379	10	0	0	0	0	628	
7	0	0	0	0	655	5	0	0	0	0	632	11	0	0	0	0	523	
8	0	0	0	0	451	6	0	0	0	0	460	12	0	0	0	0	624	
9	0	0	0	0	643	7	0	0	0	0	403	13	0	0	0	0	611	
10	0	0	0	0	438	8	0	0	0	0	463	14	0	0	0	0	335	
11	0	0	0	0	346	9	0	0	0	0	582	15	0	0	0	0	532	
12	0	0	0	0	411	10	0	0	0	0	443	0	0	0	0	0	575	
13	0	0	0	0	440	11	0	0	0	0	577	1	0	0	0	0	436	
14	0	0	0	0	604	12	0	0	0	0	450	2	0	0	0	0	367	
15	0	0	0	0	521	13	0	0	0	0	499	3	0	0	0	0	596	
0	0	0	0	0	621	14	0	0	0	0	441	4	0	0	0	0	478	
1	0	0	0	0	478	15	0	0	0	0	528	5	0	0	0	0	508	
2	0	0	0	0	552	0	0	0	0	0	449	6	0	0	0	0	545	
3	0	0	0	0	483	1	0	0	0	0	657	7	0	0	0	0	409	
4	0	0	0	0	607	2	0	0	0	0	456	8	0	0	0	0	612	
5	0	0	0	0	403	3	0	0	0	0	523	9	0	0	0	0	335	
6	0	0	0	0	573	4	0	0	0	0	558	10	0	0	0	0	518	
7	0	0	0	0	472	5	0	0	0	0	542	11	0	0	0	0	335	
8	0	0	0	0	471	6	0	0	0	0	361	12	0	0	0	0	605	
9	0	0	0	0	436	7	0	0	0	0	728	13	0	0	0	0	563	
10	0	0	0	0	543	8	0	0	0	0	322	14	0	0	0	0	608	
11	0	0	0	0	368	9	0	0	0	0	395	15	0	0	0	0	565	
12	0	0	0	0	553	10	0	0	0	0	627	0	0	0	0	0	403	
13	0	0	0	0	343	11	0	0	0	0	521	1	0	0	0	0	540	
14	0	0	0	0	734	12	0	0	0	0	513	2	0	0	0	0	479	
15	0	0	0	0	401	13	0	0	0	0	441	3	0	0	0	0	224	
0	0	0	0	0	555	14	0	0	0	0	567	4	0	0	0	0	534	
1	0	0	0	0	480	15	0	0	0	0	760	5	0	0	0	0	495	
2	0	0	0	0	501	0	0	0	0	0	393	6	0	0	0	0	541	
3	0	0	0	0	565	1	0	0	0	0	783	7	0	0	0	0	515	
4	0	0	0	0	308	2	0	0	0	0	423	8	0	0	0	0	298	
5	0	0	0	0	701	3	0	0	0	0	604	9	0	0	0	0	617	
6	0	0	0	0	339	4	0	0	0	0	576	10	0	0	0	0	119	
7	0	0	0	0	655	5	0	0	0	0	380	11	0	0	0	0	656	
8	0	0	0	0	526	6	0	0	0	0	600	12	0	0	0	0	507	
9	0	0	0	0	515	7	0	0	0	0	259	13	0	0	0	0	439	
10	0	0	0	0	418	8	0	0	0	0	362	14	0	0	0	0	394	
11	0	0	0	0	531	9	0	0	0	0	767	15	0	0	0	0	587	
12	0	0	0	0	657	10	0	0	0	0	463	0	0	0	0	0	507	
13	0	0	0	0	408	11	0	0	0	0	593	1	0	0	0	0	328	
14	0	0	0	0	512	12	0	0	0	0	437	2	0	0	0	0	638	
15	0	0	0	0	587	13	0	0	0	0	639	3	0	0	0	0	583	
0	0	0	0	0	515	14	0	0	0	0	510	4	0	0	0	0	569	
1	0	0	0	0	469	15	0	0	0	0	356	5	0	0	0	0	479	
2	0	0	0	0	452	0	0	0	0	0	373	6	0	0	0	0	681	
3	0	0	0	0	585	1	0	0	0	0	657	7	0	0	0	0	556	
4	0	0	0	0	192	2	0	0	0	0	294	8	0	0	0	0	603	
5	0	0	0	0	676	3	0	0	0	0	572	9	0	0	0	0	596	
6	0	0	0	0	304	4	0	0	0	0	355	10	0	0	0	0	218	
7	0	0	0	0	588	5	0	0	0	0	419	11	0	0	0	0	635	
8	0	0	0	0	528	6	0	0	0	0	478	12	0	0	0	0	599	
9	0	0	0	0	536	7	0	0	0	0	937	13	0	0	0	0	532	
10	0	0	0	0	509	8	0	0	0	0	435	14	0	0	0	0	250	
11	0	0	0	0	579	9	0	0	0	0	691	15	0	0	0	0	627	
12	0	0	0	0	563	10	0	0	0	0	251	0	0	0	0	0	451	
13	0	0	0	0	544	11	0	0	0	0	474	1	0	0	0	0	533	
14	0	0	0	0	588	12	0	0	0	0	515	2	0	0	0	0	523	
15	0	0	0	0	422	13	0	0	0	0	378	3	0	0	0	0	592	
0	0	0	0	0	694	14	0	0	0	0	526	4	0	0	0	0	564	
1	0	0	0	0	402	15	0	0	0	0	572	5	0	0	0	0	499	
2	0	0	0	0	582	0	0	0	0	0	438	6	0	0	0	0	539	
3	0	0	0	0	489	1	0	0	0	0	594	7	0	0	0	0	553	
4	0	0	0	0	246	2	0	0	0	0	486	8	0	0	0	0	590	
5	0	0	0	0	663	3	0	0	0	0	391	9	0	0	0	0	624	
6	0	0	0	0	352	4	0	0	0	0	366	10	0	0	0	0	652	
7	0	0	0	0	651	5	0	0	0	0	477	11	0	0	0	0	476	
8	0	0	0	0	563	6	0	0	0	0	375	12	0	0	0	0	686	
9	0	0	0	0	575	7	0	0	0	0	720	13	0	0	0	0	546	
10	0	0	0	0	782	8	0	0	0	0	387	14	0	0	0	0	360	
11	0	0	0	0	401	9	0	0	0	0	673	15	0	0	0	0	352	
12	0	0	0	0	432	10	0	0	0	0	532	0	0	0	0	0	513	
13	0	0	0	0	620	11	0	0	0	0	438	1	0	0	0	0	508	
14	0	0	0	0	488	12	0	0	0	0	608	2	0	0	0	0	478	
15	0	0	0	0	514	13	0	0	0	0	331	3	0	0	0	0	547	
0	0	0	0	0	347	14	0	0	0	0	608	4	0	0	0	0	231	
1	0	0	0	0	577	15	0	0	0	0	336	5	0	0	0	0	666	
2	0	0	0	0	446	0	0	0	0	0	291	6	0	0	0	0	512	
3	0	0	0	0	426	1	0	0	0	0	695	7	0	0	0	0	536	
4	0	0	0	0	404	2	0	0	0	0	497	8	0	0	0	0	429	
5	0	0	0	0	614	3	0	0	0	0	428	9	0	0	0	0	728	
6	0	0	0	0	493	4	0	0	0	0	487	10	0	0	0	0	494	
7	0	0	0	0	549	5	0	0	0	0	450	11	0	0	0	0	580	
8	0	0	0	0	540	6	0	0	0	0	714	12	0	0	0	0	482	
9	0	0	0	0	552	7	0	0	0	0	317	13	0	0	0	0	602	
10	0	0	0	0	576	8	0	0	0	0	718	14	0	0	0	0	563	
11	0	0	0	0	517	9	0	0	0	0	420	15	0	0	0	0	543	
12	0	0	0	0	570	10	0	0	0	0	461	0	0	0	0	0	420	
13	0	0	0	0	473	11	0	0	0	0	493	1	0	0	0	0	611	
14	0	0	0	0	500	12	0	0	0	0	459	2	0	0	0	0	287	
15	0	0	0	0	511	13	0	0	0	0	601	3	0	0	0	0	628	
0	0	0	0	0	537	14	0	0	0	0	458	4	0	0	0	0	479	
1	0	0	0	0	560	15	0	0	0	0	408	5	0	0	0	0	504	
2	0	0	0	0	406	0	0	0	0	0	550	6	0	0	0	0	331	
3	0	0	0	0	544	1	0	0	0	0	480	7	0	0	0	0	474	
4	0	0	0	0	443	2	0	0	0	0	416	8	0	0	0	0	516	
5	0	0	0	0	543	3	0	0	0	0	464	9	0	0	0	0	496	
6	0	0	0	0	551	4	0	0	0	0	427	10	0	0	0	0	415	
7	0	0	0	0	537	5	0	0	0	0	377	11	0	0	0	0	540	
8	0	0	0	0	424	6	0	0	0	0	538	12	0	0	0	0	394	
9	0	0	0	0	543	7	0	0	0	0	435	13	0	0	0	0	656	
10	0	0	0	0	533	8	0	0	0	0	499	14	0	0	0	0	483	
11	0	0	0	0	685	9	0	0	0	0	392	15	0	0	0	0	751	
12	0	0	0	0	484	10	0	0	0	0	612	0	0	0	0	0	445	
13	0	0	0	0	540	11	0	0	0	0	536	1	0	0	0	0	569	
14	0	0	0	0	447	12	0	0	0	0	536	2	0	0	0	0	530	
15	0	0	0	0	507	13	0	0	0	0	705	3	0	0	0	0	507	
0	0	0	0	0	521	14	0	0	0	0	342	4	0	0	0	0	507	
1	0	0	0	0	583	15	0	0	0	0	727	5	0	0	0	0	501	
2	0	0	0	0	436	0	0	0	0	0	433	6	0	0	0	0	539	
3	0	0	0	0	615	1	0	0	0	0	665	7	0	0	0	0	595	
4	0	0	0	0	483	2	0	0	0	0	376	8	0	0	0	0	413	
5	0	0	0	0	567	3	0	0	0	0	485	9	0	0	0	0	642	
6	0	0	0	0	441	4	0	0	0	0	577	10	0	0	0	0	597	
7	0	0	0	0	506	5	0	0	0	0	388	11	0	0	0	0	504	
8	0	0	0	0	403	6	0	0	0	0	476	12	0	0	0	0	575	
9	0	0	0	0	537	7	0	0	0	0	384	13	0	0	0	0	491	
10	0	0	0	0	399	8	0	0	0	0	806	14	0	0	0	0	472	
11	0	0	0	0	499	9	0	0	0	0	234	15	0	0	0	0	404	
12	0	0	0	0	564	10	0	0	0	0	597	0	0	0	0	0	690	
13	0	0	0	0	585	11	0	0	0	0	475	1	0	0	0	0	584	
14	0	0	0	0	445	12	0	0	0	0	514	2	0	0	0	0	294	
15	0	0	0	0	547	13	0	0	0	0	603	3	0	0	0	0	529	
0	0	0	0	0	455	14	0	0	0	0	379	4	0	0	0	0	537	
1	0	0	0	0	639	15	0	0	0	0	462	5	0	0	0	0	511	
2	0	0	0	0	428	0	0	0	0	0	507	6	0	0	0	0	579	
3	0	0	0	0	537	1	0	0	0	0	530	7	0	0	0	0	397	
4	0	0	0	0	388	2	0	0	0	0	480	8	0	0	0	0	696	
5	0	0	0	0	651	3	0	0	0	0	480	9	0	0	0	0	562	
6	0	0	0	0	444	4	0	0	0	0	298	10	0	0	0	0	434	
7	0	0	0	0	490	5	0	0	0	0	536	11	0	0	0	0	576	
8	0	0	0	0	395	6	0	0	0	0	515	12	0	0	0	0	530	
9	0	0	0	0	515	7	0	0	0	0	489	13	0	0	0	0	571	
10	0	0	0	0	465	8	0	0	0	0	420	14	0	0	0	0	466	
11	0	0	0	0	641	9	0	0	0	0	547	15	0	0	0	0	519	
12	0	0	0	0	367	10	0	0	0	0	437	0	0	0	0	0	219	
13	0	0	0	0	610	11	0	0	0	0	474	1	0	0	0	0	662	
14	0	0	0	0	496	12	0	0	0	0	345	2	0	0	0	0	216	
15	0	0	0	0	556	13	0	0	0	0	590	3	0	0	0	0	606	
0	0	0	0	0	551	14	0	0	0	0	210	4	0	0	0	0	543	
1	0	0	0	0	564	15	0	0	0	0	513	5	0	0	0	0	505	
2	0	0	0	0	383	0	0	0	0	0	310	6	0	0	0	0	588	
3	0	0	0	0	596	1	0	0	0	0	529	7	0	0	0	0	611	
4	0	0	0	0	383	2	0	0	0	0	566	8	0	0	0	0	90	
5	0	0	0	0	590	3	0	0	0	0	487	9	0	0	0	0	743	
6	0	0	0	0	429	4	0	0	0	0	645	10	0	0	0	0	273	
7	0	0	0	0	540	5	0	0	0	0	456	11	0	0	0	0	618	
8	0	0	0	0	568	6	0	0	0	0	431	12	0	0	0	0	537	
9	0	0	0	0	578	7	0	0	0	0	683	13	0	0	0	0	472	
10	0	0	0	0	301	8	0	0	0	0	572	14	0	0	0	0	413	
11	0	0	0	0	460	9	0	0	0	0	474	15	0	0	0	0	638	
12	0	0	0	0	406	10	0	0	0	0	404	0	0	0	0	0	278	
13	0	0	0	0	362	11	0	0	0	0	758	1	0	0	0	0	567	
14	0	0	0	0	591	12	0	0	0	0	454	2	0	0	0	0	550	
15	0	0	0	0	460	13	0	0	0	0	445	3	0	0	0	0	563	
0	0	0	0	0	543	14	0	0	0	0	528	4	0	0	0	0	614	
1	0	0	0	0	417	15	0	0	0	0	603	5	0	0	0	0	563	
2	0	0	0	0	572	0	0	0	0	0	442	6	0	0	0	0	522	
3	0	0	0	0	466	1	0	0	0	0	651	7	0	0	0	0	521	
4	0	0	0	0	544	2	0	0	0	0	373	8	0	0	0	0	371	
5	0	0	0	0	455	3	0	0	0	0	507	9	0	0	0	0	358	
6	0	0	0	0	521	4	0	0	0	0	384	10	0	0	0	0	542	
7	0	0	0	0	506	5	0	0	0	0	544	11	0	0	0	0	601	
8	0	0	0	0	474	6	0	0	0	0	505	12	0	0	0	0	545	
9	0	0	0	0	561	7	0	0	0	0	438	13	0	0	0	0	514	
10	0	0	0	0	383	8	0	0	0	0	495	14	0	0	0	0	494	
11	0	0	0	0	416	9	0	0	0	0	627	15	0	0	0	0	437	
12	0	0	0	0	360	10	0	0	0	0	425	0	0	0	0	0	347	
13	0	0	0	0	685	11	0	0	0	0	668	1	0	0	0	0	574	
14	0	0	0	0	205	12	0	0	0	0	366	2	0	0	0	0	305	
15	0	0	0	0	560	13	0	0	0	0	665	3	0	0	0	0	566	
0	0	0	0	0	457	14	0	0	0	0	380	4	0	0	0	0	577	
1	0	0	0	0	432	15	0	0	0	0	463	5	0	0	0	0	521	
2	0	0	0	0	445	0	0	0	0	0	616	6	0	0	0	0	484	
3	0	0	0	0	579	1	0	0	0	0	463	7	0	0	0	0	504	
4	0	0	0	0	407	2	0	0	0	0	560	8	0	0	0	0	633	
5	0	0	0	0	567	3	0	0	0	0	925	9	0	0	0	0	332	
6	0	0	0	0	479	4	0	0	0	0	361	10	0	0	0	0	602	
7	0	0	0	0	596	5	0	0	0	0	653	11	0	0	0	0	518	
8	0	0	0	0	392	6	0	0	0	0	414	12	0	0	0	0	42	
9	0	0	0	0	511	7	0	0	0	0	591	13	0	0	0	0	598	
10	0	0	0	0	500	8	0	0	0	0	458	14	0	0	0	0	496	
11	0	0	0	0	101	9	0	0	0	0	492	15	0	0	0	0	301	
12	0	0	0	0	563	10	0	0	0	0	354	0	0	0	0	0	566	
13	0	0	0	0	527	11	0	0	0	0	330	1	0	0	0	0	460	
14	0	0	0	0	449	12	0	0	0	0	661	2	0	0	0	0	527	
15	0	0	0	0	564	13	0	0	0	0	383	3	0	0	0	0	516	
0	0	0	0	0	524	14	0	0	0	0	399	4	0	0	0	0	578	
1	0	0	0	0	511	15	0	0	0	0	481	5	0	0	0	0	317	
2	0	0	0	0	580	0	0	0	0	0	382	6	0	0	0	0	645	
3	0	0	0	0	406	1	0	0	0	0	510	7	0	0	0	0	348	
4	0	0	0	0	480	2	0	0	0	0	348	8	0	0	0	0	516	
5	0	0	0	0	540	3	0	0	0	0	429	9	0	0	0	0	533	
6	0	0	0	0	499	4	0	0	0	0	510	10	0	0	0	0	540	
7	0	0	0	0	496	5	0	0	0	0	665	11	0	0	0	0	450	
8	0	0	0	0	568	6	0	0	0	0	437	12	0	0	0	0	576	
9	0	0	0	0	595	7	0	0	0	0	613	13	0	0	0	0	550	
10	0	0	0	0	336	8	0	0	0	0	432	14	0	0	0	0	448	
11	0	0	0	0	525	9	0	0	0	0	693	15	0	0	0	0	612	
12	0	0	0	0	367	10	0	0	0	0	338	0	0	0	0	0	368	
13	0	0	0	0	537	11	0	0	0	0	774	1	0	0	0	0	700	
14	0	0	0	0	544	12	0	0	0	0	355	2	0	0	0	0	402	
15	0	0	0	0	521	13	0	0	0	0	692	3	0	0	0	0	570	
0	0	0	0	0	573	14	0	0	0	0	438	4	0	0	0	0	507	
1	0	0	0	0	636	15	0	0	0	0	487	5	0	0	0	0	513	
2	0	0	0	0	477	0	0	0	0	0	487	6	0	0	0	0	406	
3	0	0	0	0	523	1	0	0	0	0	436	7	0	0	0	0	555	
4	0	0	0	0	569	2	0	0	0	0	155	8	0	0	0	0	556	
5	0	0	0	0	429	3	0	0	0	0	688	9	0	0	0	0	184	
6	0	0	0	0	523	4	0	0	0	0	400	10	0	0	0	0	436	
7	0	0	0	0	522	5	0	0	0	0	498	11	0	0	0	0	550	
8	0	0	0	0	680	6	0	0	0	0	408	12	0	0	0	0	443	
9	0	0	0	0	495	7	0	0	0	0	423	13	0	0	0	0	673	
10	0	0	0	0	428	8	0	0	0	0	710	14	0	0	0	0	532	
11	0	0	0	0	671	9	0	0	0	0	357	15	0	0	0	0	570	
12	0	0	0	0	422	10	0	0	0	0	534	0	0	0	0	0	534	
13	0	0	0	0	665	11	0	0	0	0	731	1	0	0	0	0	570	
14	0	0	0	0	412	12	0	0	0	0	330	2	0	0	0	0	383	
15	0	0	0	0	565	13	0	0	0	0	550	3	0	0	0	0	575	
0	0	0	0	0	524	14	0	0	0	0	317	4	0	0	0	0	410	
1	0	0	0	0	580	15	0	0	0	0	578	5	0	0	0	0	602	
2	0	0	0	0	442	0	0	0	0	0	300	6	0	0	0	0	416	
3	0	0	0	0	518	1	0	0	0	0	482	7	0	0	0	0	561	
4	0	0	0	0	528	2	0	0	0	0	541	8	0	0	0	0	486	
5	0	0	0	0	571	3	0	0	0	0	419	9	0	0	0	0	590	
6	0	0	0	0	517	4	0	0	0	0	316	10	0	0	0	0	284	
7	0	0	0	0	441	5	0	0	0	0	719	11	0	0	0	0	546	
8	0	0	0	0	569	6	0	0	0	0	298	12	0	0	0	0	519	
9	0	0	0	0	524	7	0	0	0	0	563	13	0	0	0	0	503	
10	0	0	0	0	491	8	0	0	0	0	417	14	0	0	0	0	497	
11	0	0	0	0	588	9	0	0	0	0	527	15	0	0	0	0	604	
12	0	0	0	0	467	10	0	0	0	0	487	0	0	0	0	0	358	
13	0	0	0	0	146	11	0	0	0	0	416	1	0	0	0	0	558	
14	0	0	0	0	633	12	0	0	0	0	542	2	0	0	0	0	523	
15	0	0	0	0	127	13	0	0	0	0	601	3	0	0	0	0	162	
0	0	0	0	0	521	14	0	0	0	0	472	4	0	0	0	0	641	
1	0	0	0	0	412	15	0	0	0	0	523	5	0	0	0	0	486	
2	0	0	0	0	525	0	0	0	0	0	433	6	0	0	0	0	568	
3	0	0	0	0	599	1	0	0	0	0	635	7	0	0	0	0	537	
4	0	0	0	0	525	2	0	0	0	0	391	8	0	0	0	0	490	
5	0	0	0	0	502	3	0	0	0	0	502	9	0	0	0	0	496	
6	0	0	0	0	612	4	0	0	0	0	678	10	0	0	0	0	545	
7	0	0	0	0	488	5	0	0	0	0	437	11	0	0	0	0	427	
8	0	0	0	0	636	6	0	0	0	0	561	12	0	0	0	0	638	
9	0	0	0	0	445	7	0	0	0	0	464	13	0	0	0	0	347	
10	0	0	0	0	502	8	0	0	0	0	691	14	0	0	0	0	604	
11	0	0	0	0	595	9	0	0	0	0	349	15	0	0	0	0	517	
12	0	0	0	0	505	10	0	0	0	0	575	0	0	0	0	0	466	
13	0	0	0	0	481	11	0	0	0	0	425	1	0	0	0	0	515	
14	0	0	0	0	625	12	0	0	0	0	429	2	0	0	0	0	548	
15	0	0	0	0	508	13	0	0	0	0	689	3	0	0	0	0	303	
0	0	0	0	0	431	14	0	0	0	0	419	4	0	0	0	0	520	
1	0	0	0	0	586	15	0	0	0	0	436	5	0	0	0	0	546	
2	0	0	0	0	506	0	0	0	0	0	554	6	0	0	0	0	540	
3	0	0	0	0	545	1	0	0	0	0	397	7	0	0	0	0	506	
4	0	0	0	0	426	2	0	0	0	0	491	8	0	0	0	0	318	
5	0	0	0	0	542	3	0	0	0	0	615	9	0	0	0	0	485	
6	0	0	0	0	506	4	0	0	0	0	497	10	0	0	0	0	528	
7	0	0	0	0	475	5	0	0	0	0	687	11	0	0	0	0	453	
8	0	0	0	0	496	6	0	0	0	0	192	12	0	0	0	0	504	
9	0	0	0	0	384	7	0	0	0	0	459	13	0	0	0	0	568	
10	0	0	0	0	597	8	0	0	0	0	398	14	0	0	0	0	530	
11	0	0	0	0	492	9	0	0	0	0	579	15	0	0	0	0	511	
12	0	0	0	0	471	10	0	0	0	0	530	0	0	0	0	0	296	
13	0	0	0	0	528	11	0	0	0	0	467	1	0	0	0	0	598	
14	0	0	0	0	475	12	0	0	0	0	579	2	0	0	0	0	539	
15	0	0	0	0	511	13	0	0	0	0	610	3	0	0	0	0	488	
0	0	0	0	0	382	14	0	0	0	0	436	4	0	0	0	0	543	
1	0	0	0	0	699	15	0	0	0	0	710	5	0	0	0	0	580	
2	0	0	0	0	391	0	0	0	0	0	299	6	0	0	0	0	244	
3	0	0	0	0	613	1	0	0	0	0	882	7	0	0	0	0	558	
4	0	0	0	0	530	2	0	0	0	0	512	8	0	0	0	0	469	
5	0	0	0	0	484	3	0	0	0	0	502	9	0	0	0	0	511	
6	0	0	0	0	465	4	0	0	0	0	633	10	0	0	0	0	528	
7	0	0	0	0	565	5	0	0	0	0	484	11	0	0	0	0	579	
8	0	0	0	0	426	6	0	0	0	0	423	12	0	0	0	0	470	
9	0	0	0	0	603	7	0	0	0	0	440	13	0	0	0	0	571	
10	0	0	0	0	545	8	0	0	0	0	463	14	0	0	0	0	583	
11	0	0	0	0	591	9	0	0	0	0	494	15	0	0	0	0	715	
12	0	0	0	0	450	10	0	0	0	0	571	0	0	0	0	0	474	
13	0	0	0	0	370	11	0	0	0	0	675	1	0	0	0	0	587	
14	0	0	0	0	525	12	0	0	0	0	427	2	0	0	0	0	382	
15	0	0	0	0	557	13	0	0	0	0	544	3	0	0	0	0	465	
0	0	0	0	0	513	14	0	0	0	0	785	4	0	0	0	0	355	
1	0	0	0	0	550	15	0	0	0	0	347	5	0	0	0	0	536	
2	0	0	0	0	504	0	0	0	0	0	694	6	0	0	0	0	397	
3	0	0	0	0	560	1	0	0	0	0	377	7	0	0	0	0	558	
4	0	0	0	0	529	2	0	0	0	0	624	8	0	0	0	0	615	
5	0	0	0	0	572	3	0	0	0	0	602	9	0	0	0	0	487	
6	0	0	0	0	452	4	0	0	0	0	258	10	0	0	0	0	484	
7	0	0	0	0	552	5	0	0	0	0	625	11	0	0	0	0	629	
8	0	0	0	0	532	6	0	0	0	0	808	12	0	0	0	0	459	
9	0	0	0	0	440	7	0	0	0	0	177	13	0	0	0	0	516	
10	0	0	0	0	478	8	0	0	0	0	648	14	0	0	0	0	591	
11	0	0	0	0	620	9	0	0	0	0	362	15	0	0	0	0	491	
12	0	0	0	0	509	10	0	0	0	0	502	0	0	0	0	0	595	
13	0	0	0	0	335	11	0	0	0	0	741	1	0	0	0	0	278	
14	0	0	0	0	572	12	0	0	0	0	489	2	0	0	0	0	579	
15	0	0	0	0	449	13	0	0	0	0	569	3	0	0	0	0	436	
0	0	0	0	0	556	14	0	0	0	0	350	4	0	0	0	0	491	
1	0	0	0	0	485	15	0	0	0	0	510	5	0	0	0	0	534	
2	0	0	0	0	627	0	0	0	0	0	426	6	0	0	0	0	566	
3	0	0	0	0	517	1	0	0	0	0	647	7	0	0	0	0	414	
4	0	0	0	0	514	2	0	0	0	0	648	8	0	0	0	0	673	
5	0	0	0	0	542	3	0	0	0	0	385	9	0	0	0	0	405	
6	0	0	0	0	541	4	0	0	0	0	547	10	0	0	0	0	538	
7	0	0	0	0	465	5	0	0	0	0	504	11	0	0	0	0	489	
8	0	0	0	0	551	6	0	0	0	0	496	12	0	0	0	0	504	
9	0	0	0	0	541	7	0	0	0	0	525	13	0	0	0	0	494	
10	0	0	0	0	511	8	0	0	0	0	284	14	0	0	0	0	600	
11	0	0	0	0	591	9	0	0	0	0	744	15	0	0	0	0	529	
12	0	0	0	0	547	10	0	0	0	0	328	0	0	0	0	0	612	
13	0	0	0	0	507	11	0	0	0	0	477	1	0	0	0	0	492	
14	0	0	0	0	523	12	0	0	0	0	495	2	0	0	0	0	575	
15	0	0	0	0	595	13	0	0	0	0	481	3	0	0	0	0	564	
0	0	0	0	0	532	14	0	0	0	0	449	4	0	0	0	0	592	
1	0	0	0	0	511	15	0	0	0	0	408	5	0	0	0	0	489	
2	0	0	0	0	483	0	0	0	0	0	493	6	0	0	0	0	460	
3	0	0	0	0	608	1	0	0	0	0	431	7	0	0	0	0	579	
4	0	0	0	0	419	2	0	0	0	0	512	8	0	0	0	0	524	
5	0	0	0	0	463	3	0	0	0	0	367	9	0	0	0	0	539	
6	0	0	0	0	475	4	0	0	0	0	591	10	0	0	0	0	422	
7	0	0	0	0	586	5	0	0	0	0	508	11	0	0	0	0	572	
8	0	0	0	0	472	6	0	0	0	0	545	12	0	0	0	0	521	
9	0	0	0	0	478	7	0	0	0	0	427	13	0	0	0	0	465	
10	0	0	0	0	466	8	0	0	0	0	595	14	0	0	0	0	561	
11	0	0	0	0	616	9	0	0	0	0	497	15	0	0	0	0	501	
12	0	0	0	0	593	10	0	0	0	0	349	0	0	0	0	0	685	
13	0	0	0	0	431	11	0	0	0	0	760	1	0	0	0	0	296	
14	0	0	0	0	577	12	0	0	0	0	399	2	0	0	0	0	642	
15	0	0	0	0	506	13	0	0	0	0	459	3	0	0	0	0	443	
0	0	0	0	0	403	14	0	0	0	0	562	4	0	0	0	0	492	
1	0	0	0	0	419	15	0	0	0	0	414	5	0	0	0	0	500	
2	0	0	0	0	519	0	0	0	0	0	512	6	0	0	0	0	458	
3	0	0	0	0	567	1	0	0	0	0	407	7	0	0	0	0	497	
4	0	0	0	0	503	2	0	0	0	0	684	8	0	0	0	0	484	
5	0	0	0	0	593	3	0	0	0	0	414	9	0	0	0	0	721	
6	0	0	0	0	384	4	0	0	0	0	518	10	0	0	0	0	282	
7	0	0	0	0	431	5	0	0	0	0	513	11	0	0	0	0	509	
8	0	0	0	0	641	6	0	0	0	0	428	12	0	0	0	0	607	
9	0	0	0	0	403	7	0	0	0	0	421	13	0	0	0	0	506	
10	0	0	0	0	499	8	0	0	0	0	399	14	0	0	0	0	496	
11	0	0	0	0	523	9	0	0	0	0	512	15	0	0	0	0	428	
12	0	0	0	0	355	10	0	0	0	0	536	0	0	0	0	0	159	
13	0	0	0	0	684	11	0	0	0	0	430	1	0	0	0	0	635	
14	0	0	0	0	521	12	0	0	0	0	470	2	0	0	0	0	552	
15	0	0	0	0	590	13	0	0	0	0	542	3	0	0	0	0	538	
0	0	0	0	0	462	14	0	0	0	0	479	4	0	0	0	0	517	
1	0	0	0	0	610	15	0	0	0	0	588	5	0	0	0	0	505	
2	0	0	0	0	532	0	0	0	0	0	355	6	0	0	0	0	518	
3	0	0	0	0	558	1	0	0	0	0	458	7	0	0	0	0	527	
4	0	0	0	0	532	2	0	0	0	0	456	8	0	0	0	0	543	
5	0	0	0	0	518	3	0	0	0	0	603	9	0	0	0	0	554	
6	0	0	0	0	425	4	0	0	0	0	458	10	0	0	0	0	596	
7	0	0	0	0	566	5	0	0	0	0	456	11	0	0	0	0	555	
8	0	0	0	0	498	6	0	0	0	0	534	12	0	0	0	0	522	
9	0	0	0	0	413	7	0	0	0	0	360	13	0	0	0	0	443	
10	0	0	0	0	557	8	0	0	0	0	585	14	0	0	0	0	550	
11	0	0	0	0	534	9	0	0	0	0	416	15	0	0	0	0	546	
12	0	0	0	0	483	10	0	0	0	0	560	0	0	0	0	0	458	
13	0	0	0	0	527	11	0	0	0	0	336	1	0	0	0	0	612	
14	0	0	0	0	464	12	0	0	0	0	488	2	0	0	0	0	446	
15	0	0	0	0	561	13	0	0	0	0	348	3	0	0	0	0	600	
0	0	0	0	0	630	14	0	0	0	0	596	4	0	0	0	0	560	
1	0	0	0	0	463	15	0	0	0	0	331	5	0	0	0	0	532	
2	0	0	0	0	492	0	0	0	0	0	619	6	0	0	0	0	396	
3	0	0	0	0	542	1	0	0	0	0	447	7	0	0	0	0	563	
4	0	0	0	0	605	2	0	0	0	0	556	8	0	0	0	0	644	
5	0	0	0	0	425	3	0	0	0	0	588	9	0	0	0	0	357	
6	0	0	0	0	548	4	0	0	0	0	319	10	0	0	0	0	601	
7	0	0	0	0	457	5	0	0	0	0	510	11	0	0	0	0	253	
8	0	0	0	0	383	6	0	0	0	0	472	12	0	0	0	0	584	
9	0	0	0	0	527	7	0	0	0	0	476	13	0	0	0	0	430	
10	0	0	0	0	429	8	0	0	0	0	478	14	0	0	0	0	504	
11	0	0	0	0	445	9	0	0	0	0	540	15	0	0	0	0	567	
12	0	0	0	0	529	10	0	0	0	0	480	0	0	0	0	0	487	
13	0	0	0	0	484	11	0	0	0	0	607	1	0	0	0	0	508	
14	0	0	0	0	543	12	0	0	0	0	469	2	0	0	0	0	500	
15	0	0	0	0	579	13	0	0	0	0	598	3	0	0	0	0	568	
0	0	0	0	0	528	14	0	0	0	0	342	4	0	0	0	0	541	
1	0	0	0	0	507	15	0	0	0	0	768	5	0	0	0	0	567	
2	0	0	0	0	485	0	0	0	0	0	416	6	0	0	0	0	421	
3	0	0	0	0	577	1	0	0	0	0	407	7	0	0	0	0	612	
4	0	0	0	0	361	2	0	0	0	0	568	8	0	0	0	0	483	
5	0	0	0	0	479	3	0	0	0	0	464	9	0	0	0	0	359	
6	0	0	0	0	519	4	0	0	0	0	473	10	0	0	0	0	599	
7	0	0	0	0	499	5	0	0	0	0	445	11	0	0	0	0	479	
8	0	0	0	0	467	6	0	0	0	0	547	12	0	0	0	0	563	
9	0	0	0	0	507	7	0	0	0	0	480	13	0	0	0	0	521	
10	0	0	0	0	556	8	0	0	0	0	448	14	0	0	0	0	530	
11	0	0	0	0	493	9	0	0	0	0	423	15	0	0	0	0	530	
12	0	0	0	0	502	10	0	0	0	0	467	0	0	0	0	0	478	
13	0	0	0	0	491	11	0	0	0	0	445	1	0	0	0	0	510	
14	0	0	0	0	550	12	0	0	0	0	520	2	0	0	0	0	426	
15	0	0	0	0	505	13	0	0	0	0	360	3	0	0	0	0	526	
0	0	0	0	0	510	14	0	0	0	0	620	4	0	0	0	0	555	
1	0	0	0	0	500	15	0	0	0	0	437	5	0	0	0	0	474	
2	0	0	0	0	527	0	0	0	0	0	497	6	0	0	0	0	666	
3	0	0	0	0	469	1	0	0	0	0	558	7	0	0	0	0	542	
4	0	0	0	0	536	2	0	0	0	0	439	8	0	0	0	0	555	
5	0	0	0	0	555	3	0	0	0	0	692	9	0	0	0	0	467	
6	0	0	0	0	507	4	0	0	0	0	334	10	0	0	0	0	568	
7	0	0	0	0	527	5	0	0	0	0	606	11	0	0	0	0	542	
8	0	0	0	0	433	6	0	0	0	0	473	12	0	0	0	0	534	
9	0	0	0	0	516	7	0	0	0	0	520	13	0	0	0	0	433	
10	0	0	0	0	488	8	0	0	0	0	533	14	0	0	0	0	671	
11	0	0	0	0	490	9	0	0	0	0	1009	15	0	0	0	0	491	
12	0	0	0	0	603	10	0	0	0	0	291	0	0	0	0	0	524	
13	0	0	0	0	496	11	0	0	0	0	623	1	0	0	0	0	515	
14	0	0	0	0	554	12	0	0	0	0	418	2	0	0	0	0	471	
15	0	0	0	0	527	13	0	0	0	0	618	3	0	0	0	0	499	
0	0	0	0	0	450	14	0	0	0	0	519	4	0	0	0	0	309	
1	0	0	0	0	574	15	0	0	0	0	495	5	0	0	0	0	559	
2	0	0	0	0	478	0	0	0	0	0	503	6	0	0	0	0	536	
3	0	0	0	0	579	1	0	0	0	0	396	7	0	0	0	0	527	
4	0	0	0	0	484	2	0	0	0	0	772	8	0	0	0	0	484	
5	0	0	0	0	495	3	0	0	0	0	352	9	0	0	0	0	526	
6	0	0	0	0	516	4	0	0	0	0	508	10	0	0	0	0	502	
7	0	0	0	0	505	5	0	0	0	0	550	11	0	0	0	0	497	
8	0	0	0	0	531	6	0	0	0	0	565	12	0	0	0	0	435	
9	0	0	0	0	573	7	0	0	0	0	414	13	0	0	0	0	587	
10	0	0	0	0	601	8	0	0	0	0	467	14	0	0	0	0	485	
11	0	0	0	0	475	9	0	0	0	0	455	15	0	0	0	0	425	
12	0	0	0	0	582	10	0	0	0	0	572	0	0	0	0	0	564	
13	0	0	0	0	430	11	0	0	0	0	493	1	0	0	0	0	503	
14	0	0	0	0	571	12	0	0	0	0	878	2	0	0	0	0	509	
15	0	0	0	0	384	13	0	0	0	0	735	3	0	0	0	0	410	
0	0	0	0	0	506	14	0	0	0	0	386	4	0	0	0	0	539	
1	0	0	0	0	474	15	0	0	0	0	682	5	0	0	0	0	430	
2	0	0	0	0	525	0	0	0	0	0	385	6	0	0	0	0	547	
3	0	0	0	0	637	1	0	0	0	0	760	7	0	0	0	0	583	
4	0	0	0	0	460	2	0	0	0	0	634	8	0	0	0	0	465	
5	0	0	0	0	538	3	0	0	0	0	305	9	0	0	0	0	569	
6	0	0	0	0	536	4	0	0	0	0	545	10	0	0	0	0	533	
7	0	0	0	0	502	5	0	0	0	0	422	11	0	0	0	0	583	
8	0	0	0	0	527	6	0	0	0	0	608	12	0	0	0	0	529	
9	0	0	0	0	505	7	0	0	0	0	322	13	0	0	0	0	519	
10	0	0	0	0	488	8	0	0	0	0	366	14	0	0	0	0	572	
11	0	0	0	0	572	9	0	0	0	0	634	15	0	0	0	0	543	
12	0	0	0	0	501	10	0	0	0	0	388	0	0	0	0	0	410	
13	0	0	0	0	480	11	0	0	0	0	440	1	0	0	0	0	516	
14	0	0	0	0	530	12	0	0	0	0	691	2	0	0	0	0	423	
15	0	0	0	0	524	13	0	0	0	0	450	3	0	0	0	0	513	
0	0	0	0	0	531	14	0	0	0	0	544	4	0	0	0	0	565	
1	0	0	0	0	660	15	0	0	0	0	386	5	0	0	0	0	528	
2	0	0	0	0	519	0	0	0	0	0	575	6	0	0	0	0	557	
3	0	0	0	0	540	1	0	0	0	0	631	7	0	0	0	0	499	
4	0	0	0	0	548	2	0	0	0	0	501	8	0	0	0	0	528	
5	0	0	0	0	547	3	0	0	0	0	407	9	0	0	0	0	535	
6	0	0	0	0	432	4	0	0	0	0	493	10	0	0	0	0	445	
7	0	0	0	0	482	5	0	0	0	0	667	11	0	0	0	0	547	
8	0	0	0	0	570	6	0	0	0	0	445	12	0	0	0	0	582	
9	0	0	0	0	519	7	0	0	0	0	476	13	0	0	0	0	558	
10	0	0	0	0	476	8	0	0	0	0	515	14	0	0	0	0	621	
11	0	0	0	0	469	9	0	0	0	0	402	15	0	0	0	0	488	
12	0	0	0	0	440	10	0	0	0	0	560	0	0	0	0	0	514	
13	0	0	0	0	591	11	0	0	0	0	311	1	0	0	0	0	526	
14	0	0	0	0	551	12	0	0	0	0	531	2	0	0	0	0	613	
15	0	0	0	0	481	13	0	0	0	0	444	3	0	0	0	0	524	
0	0	0	0	0	460	14	0	0	0	0	441	4	0	0	0	0	446	
1	0	0	0	0	434	15	0	0	0	0	441	5	0	0	0	0	463	
2	0	0	0	0	486	0	0	0	0	0	452	6	0	0	0	0	508	
3	0	0	0	0	439	1	0	0	0	0	476	7	0	0	0	0	425	
4	0	0	0	0	510	2	0	0	0	0	440	8	0	0	0	0	568	
5	0	0	0	0	505	3	0	0	0	0	515	9	0	0	0	0	478	
6	0	0	0	0	523	4	0	0	0	0	415	10	0	0	0	0	552	
7	0	0	0	0	433	5	0	0	0	0	443	11	0	0	0	0	370	
8	0	0	0	0	451	6	0	0	0	0	542	12	0	0	0	0	614	
9	0	0	0	0	472	7	0	0	0	0	505	13	0	0	0	0	507	
10	0	0	0	0	500	8	0	0	0	0	377	14	0	0	0	0	536	
11	0	0	0	0	578	9	0	0	0	0	917	15	0	0	0	0	585	
12	0	0	0	0	496	10	0	0	0	0	395	0	0	0	0	0	415	
13	0	0	0	0	563	11	0	0	0	0	483	1	0	0	0	0	557	
14	0	0	0	0	430	12	0	0	0	0	531	2	0	0	0	0	423	
15	0	0	0	0	518	13	0	0	0	0	599	3	0	0	0	0	500	
0	0	0	0	0	530	14	0	0	0	0	443	4	0	0	0	0	527	
1	0	0	0	0	519	15	0	0	0	0	499	5	0	0	0	0	478	
2	0	0	0	0	461	0	0	0	0	0	493	6	0	0	0	0	497	
3	0	0	0	0	517	1	0	0	0	0	669	7	0	0	0	0	547	
4	0	0	0	0	516	2	0	0	0	0	333	8	0	0	0	0	487	
5	0	0	0	0	493	3	0	0	0	0	524	9	0	0	0	0	445	
6	0	0	0	0	491	4	0	0	0	0	614	10	0	0	0	0	548	
7	0	0	0	0	553	5	0	0	0	0	504	11	0	0	0	0	473	
8	0	0	0	0	370	6	0	0	0	0	755	12	0	0	0	0	337	
9	0	0	0	0	589	7	0	0	0	0	363	13	0	0	0	0	558	
10	0	0	0	0	500	8	0	0	0	0	570	14	0	0	0	0	494	
11	0	0	0	0	435	9	0	0	0	0	459	15	0	0	0	0	531	
12	0	0	0	0	498	10	0	0	0	0	496	0	0	0	0	0	461	
13	0	0	0	0	413	11	0	0	0	0	548	1	0	0	0	0	366	
14	0	0	0	0	569	12	0	0	0	0	251	2	0	0	0	0	556	
15	0	0	0	0	482	13	0	0	0	0	611	3	0	0	0	0	498	
0	0	0	0	0	565	14	0	0	0	0	459	4	0	0	0	0	492	
1	0	0	0	0	513	15	0	0	0	0	503	5	0	0	0	0	514	
2	0	0	0	0	547	0	0	0	0	0	510	6	0	0	0	0	560	
3	0	0	0	0	499	1	0	0	0	0	397	7	0	0	0	0	529	
4	0	0	0	0	492	2	0	0	0	0	637	8	0	0	0	0	512	
5	0	0	0	0	488	3	0	0	0	0	524	9	0	0	0	0	484	
6	0	0	0	0	526	4	0	0	0	0	394	10	0	0	0	0	670	
7	0	0	0	0	393	5	0	0	0	0	601	11	0	0	0	0	436	
8	0	0	0	0	556	6	0	0	0	0	406	12	0	0	0	0	519	
9	0	0	0	0	513	7	0	0	0	0	583	13	0	0	0	0	532	
10	0	0	0	0	508	8	0	0	0	0	476	14	0	0	0	0	473	
11	0	0	0	0	509	9	0	0	0	0	557	15	0	0	0	0	520	
12	0	0	0	0	519	10	0	0	0	0	444	0	0	0	0	0	506	
13	0	0	0	0	474	11	0	0	0	0	481	1	0	0	0	0	358	
14	0	0	0	0	530	12	0	0	0	0	554	2	0	0	0	0	561	
15	0	0	0	0	472	13	0	0	0	0	558	3	0	0	0	0	505	
0	0	0	0	0	554	14	0	0	0	0	511	4	0	0	0	0	523	
1	0	0	0	0	524	15	0	0	0	0	556	5	0	0	0	0	512	
2	0	0	0	0	514	0	0	0	0	0	391	6	0	0	0	0	557	
3	0	0	0	0	480	1	0	0	0	0	455	7	0	0	0	0	524	
4	0	0	0	0	527	2	0	0	0	0	364	8	0	0	0	0	476	
5	0	0	0	0	532	3	0	0	0	0	457	9	0	0	0	0	507	
6	0	0	0	0	437	4	0	0	0	0	485	10	0	0	0	0	484	
7	0	0	0	0	496	5	0	0	0	0	400	11	0	0	0	0	520	
8	0	0	0	0	504	6	0	0	0	0	560	12	0	0	0	0	524	
9	0	0	0	0	476	7	0	0	0	0	415	13	0	0	0	0	481	
10	0	0	0	0	495	8	0	0	0	0	401	14	0	0	0	0	558	
11	0	0	0	0	583	9	0	0	0	0	486	15	0	0	0	0	547	
12	0	0	0	0	510	10	0	0	0	0	575	0	0	0	0	0	473	
13	0	0	0	0	503	11	0	0	0	0	452	1	0	0	0	0	509	
14	0	0	0	0	579	12	0	0	0	0	557	2	0	0	0	0	563	
15	0	0	0	0	495	13	0	0	0	0	493	3	0	0	0	0	520	
0	0	0	0	0	511	14	0	0	0	0	535	4	0	0	0	0	523	
1	0	0	0	0	523	15	0	0	0	0	448	5	0	0	0	0	510	
2	0	0	0	0	496	0	0	0	0	0	532	6	0	0	0	0	480	
3	0	0	0	0	505	1	0	0	0	0	415	7	0	0	0	0	474	
4	0	0	0	0	508	2	0	0	0	0	454	8	0	0	0	0	504	
5	0	0	0	0	489	3	0	0	0	0	520	9	0	0	0	0	507	
6	0	0	0	0	515	4	0	0	0	0	284	10	0	0	0	0	492	
7	0	0	0	0	489	5	0	0	0	0	991	11	0	0	0	0	489	
8	0	0	0	0	522	6	0	0	0	0	374	12	0	0	0	0	531	
9	0	0	0	0	548	7	0	0	0	0	551	13	0	0	0	0	517	
10	0	0	0	0	492	8	0	0	0	0	545	14	0	0	0	0	503	
11	0	0	0	0	483	9	0	0	0	0	403	15	0	0	0	0	467	
12	0	0	0	0	516	10	0	0	0	0	441	0	0	0	0	0	529	
13	0	0	0	0	537	11	0	0	0	0	584	1	0	0	0	0	491	
14	0	0	0	0	514	12	0	0	0	0	451	2	0	0	0	0	459	
15	0	0	0	0	526	13	0	0	0	0	480	3	0	0	0	0	495	
0	0	0	0	0	513	14	0	0	0	0	446	4	0	0	0	0	514	
1	0	0	0	0	504	15	0	0	0	0	541	5	0	0	0	0	540	
2	0	0	0	0	531	0	0	0	0	0	496	6	0	0	0	0	498	
3	0	0	0	0	514	1	0	0	0	0	623	7	0	0	0	0	533	
4	0	0	0	0	509	2	0	0	0	0	472	8	0	0	0	0	504	
5	0	0	0	0	496	3	0	0	0	0	368	9	0	0	0	0	518	
6	0	0	0	0	486	4	0	0	0	0	670	10	0	0	0	0	522	
7	0	0	0	0	517	5	0	0	0	0	274	11	0	0	0	0	489	
8	0	0	0	0	511	6	0	0	0	0	587	12	0	0	0	0	543	
9	0	0	0	0	467	7	0	0	0	0	602	13	0	0	0	0	457	
10	0	0	0	0	526	8	0	0	0	0	480	14	0	0	0	0	521	
11	0	0	0	0	500	9	0	0	0	0	482	15	0	0	0	0	510	
12	0	0	0	0	509	10	0	0	0	0	603	0	0	0	0	0	504	
13	0	0	0	0	501	11	0	0	0	0	451	1	0	0	0	0	530	
14	0	0	0	0	510	12	0	0	0	0	531	2	0	0	0	0	507	
15	0	0	0	0	501	13	0	0	0	0	438	3	0	0	0	0	519	
0	0	0	0	0	503	14	0	0	0	0	563	4	0	0	0	0	493	
1	0	0	0	0	505	15	0	0	0	0	629	5	0	0	0	0	495	
2	0	0	0	0	497	0	0	0	0	0	358	6	0	0	0	0	507	
3	0	0	0	0	515	1	0	0	0	0	480	7	0	0	0	0	520	
4	0	0	0	0	504	2	0	0	0	0	459	8	0	0	0	0	497	
5	0	0	0	0	499	3	0	0	0	0	557	9	0	0	0	0	524	
6	0	0	0	0	514	4	0	0	0	0	467	10	0	0	0	0	483	
7	0	0	0	0	496	5	0	0	0	0	533	11	0	0	0	0	502	
8	0	0	0	0	515	6	0	0	0	0	608	12	0	0	0	0	520	
9	0	0	0	0	505	7	0	0	0	0	421	13	0	0	0	0	500	
10	0	0	0	0	499	8	0	0	0	0	548	14	0	0	0	0	519	
11	0	0	0	0	526	9	0	0	0	0	409	15	0	0	0	0	526	
12	0	0	0	0	493	10	0	0	0	0	467	0	0	0	0	0	461	
13	0	0	0	0	518	11	0	0	0	0	483	1	0	0	0	0	531	
14	0	0	0	0	504	12	0	0	0	0	428	2	0	0	0	0	511	
15	0	0	0	0	494	13	0	0	0	0	556	3	0	0	0	0	520	
0	0	0	0	0	525	14	0	0	0	0	480	4	0	0	0	0	496	
1	0	0	0	0	494	15	0	0	0	0	569	5	0	0	0	0	525	
2	0	0	0	0	514	0	0	0	0	0	557	6	0	0	0	0	506	
3	0	0	0	0	504	1	0	0	0	0	319	7	0	0	0	0	515	
4	0	0	0	0	497	2	0	0	0	0	601	8	0	0	0	0	517	
5	0	0	0	0	529	3	0	0	0	0	544	9	0	0	0	0	509	
6	0	0	0	0	498	4	0	0	0	0	448	10	0	0	0	0	524	
7	0	0	0	0	514	5	0	0	0	0	624	11	0	0	0	0	490	
8	0	0	0	0	508	6	0	0	0	0	395	12	0	0	0	0	523	
9	0	0	0	0	495	7	0	0	0	0	469	13	0	0	0	0	499	
10	0	0	0	0	535	8	0	0	0	0	495	14	0	0	0	0	512	
11	0	0	0	0	492	9	0	0	0	0	492	15	0	0	0	0	520	
12	0	0	0	0	515	10	0	0	0	0	619	0	0	0	0	0	496	
13	0	0	0	0	505	11	0	0	0	0	467	1	0	0	0	0	513	
14	0	0	0	0	495	12	0	0	0	0	590	2	0	0	0	0	503	
15	0	0	0	0	527	13	0	0	0	0	455	3	0	0	0	0	491	
0	0	0	0	0	495	14	0	0	0	0	501	4	0	0	0	0	524	
1	0	0	0	0	513	15	0	0	0	0	396	5	0	0	0	0	510	
2	0	0	0	0	501	0	0	0	0	0	530	6	0	0	0	0	496	
3	0	0	0	0	496	1	0	0	0	0	564	7	0	0	0	0	525	
4	0	0	0	0	528	2	0	0	0	0	476	8	0	0	0	0	492	
5	0	0	0	0	492	3	0	0	0	0	527	9	0	0	0	0	539	
6	0	0	0	0	511	4	0	0	0	0	507	10	0	0	0	0	484	
7	0	0	0	0	504	5	0	0	0	0	428	11	0	0	0	0	515	
8	0	0	0	0	497	6	0	0	0	0	578	12	0	0	0	0	511	
9	0	0	0	0	528	7	0	0	0	0	496	13	0	0	0	0	506	
10	0	0	0	0	495	8	0	0	0	0	497	14	0	0	0	0	521	
11	0	0	0	0	520	9	0	0	0	0	540	15	0	0	0	0	512	
12	0	0	0	0	504	10	0	0	0	0	542	0	0	0	0	0	509	
13	0	0	0	0	497	11	0	0	0	0	534	1	0	0	0	0	515	
14	0	0	0	0	526	12	0	0	0	0	460	2	0	0	0	0	491	
15	0	0	0	0	494	13	0	0	0	0	532	3	0	0	0	0	528	
0	0	0	0	0	515	14	0	0	0	0	521	4	0	0	0	0	520	
1	0	0	0	0	503	15	0	0	0	0	451	5	0	0	0	0	508	
2	0	0	0	0	497	0	0	0	0	0	576	6	0	0	0	0	514	
3	0	0	0	0	525	1	0	0	0	0	470	7	0	0	0	0	501	
4	0	0	0	0	492	2	0	0	0	0	567	8	0	0	0	0	526	
5	0	0	0	0	516	3	0	0	0	0	521	9	0	0	0	0	495	
6	0	0	0	0	503	4	0	0	0	0	426	10	0	0	0	0	506	
7	0	0	0	0	498	5	0	0	0	0	564	11	0	0	0	0	503	
8	0	0	0	0	527	6	0	0	0	0	448	12	0	0	0	0	499	
9	0	0	0	0	497	7	0	0	0	0	512	13	0	0	0	0	526	
10	0	0	0	0	516	8	0	0	0	0	530	14	0	0	0	0	530	
11	0	0	0	0	504	9	0	0	0	0	420	15	0	0	0	0	478	
12	0	0	0	0	502	10	0	0	0	0	582	0	0	0	0	0	523	
13	0	0	0	0	526	11	0	0	0	0	449	1	0	0	0	0	499	
14	0	0	0	0	489	12	0	0	0	0	529	2	0	0	0	0	518	
15	0	0	0	0	516	13	0	0	0	0	528	3	0	0	0	0	502	
0	0	0	0	0	503	14	0	0	0	0	430	4	0	0	0	0	508	
1	0	0	0	0	501	15	0	0	0	0	574	5	0	0	0	0	512	
2	0	0	0	0	528	0	0	0	0	0	459	6	0	0	0	0	497	
3	0	0	0	0	491	1	0	0	0	0	533	7	0	0	0	0	518	
4	0	0	0	0	519	2	0	0	0	0	535	8	0	0	0	0	506	
5	0	0	0	0	502	3	0	0	0	0	428	9	0	0	0	0	510	
6	0	0	0	0	499	4	0	0	0	0	599	10	0	0	0	0	509	
7	0	0	0	0	526	5	0	0	0	0	454	11	0	0	0	0	500	
8	0	0	0	0	488	6	0	0	0	0	524	12	0	0	0	0	516	
9	0	0	0	0	515	7	0	0	0	0	531	13	0	0	0	0	515	
10	0	0	0	0	499	8	0	0	0	0	418	14	0	0	0	0	468	
11	0	0	0	0	500	9	0	0	0	0	580	15	0	0	0	0	523	
12	0	0	0	0	525	10	0	0	0	0	457	0	0	0	0	0	495	
13	0	0	0	0	493	11	0	0	0	0	516	1	0	0	0	0	520	
14	0	0	0	0	517	12	0	0	0	0	530	2	0	0	0	0	501	
15	0	0	0	0	503	13	0	0	0	0	423	3	0	0	0	0	511	
0	0	0	0	0	501	14	0	0	0	0	579	4	0	0	0	0	499	
1	0	0	0	0	524	15	0	0	0	0	457	5	0	0	0	0	507	
2	0	0	0	0	490	0	0	0	0	0	526	6	0	0	0	0	524	
3	0	0	0	0	518	1	0	0	0	0	533	7	0	0	0	0	501	
4	0	0	0	0	503	2	0	0	0	0	412	8	0	0	0	0	511	
5	0	0	0	0	501	3	0	0	0	0	585	9	0	0	0	0	511	
6	0	0	0	0	526	4	0	0	0	0	458	10	0	0	0	0	503	
7	0	0	0	0	490	5	0	0	0	0	531	11	0	0	0	0	519	
8	0	0	0	0	516	6	0	0	0	0	534	12	0	0	0	0	504	
9	0	0	0	0	503	7	0	0	0	0	413	13	0	0	0	0	513	
10	0	0	0	0	499	8	0	0	0	0	581	14	0	0	0	0	500	
11	0	0	0	0	524	9	0	0	0	0	458	15	0	0	0	0	504	
12	0	0	0	0	492	10	0	0	0	0	529	0	0	0	0	0	522	
13	0	0	0	0	516	11	0	0	0	0	507	1	0	0	0	0	498	
14	0	0	0	0	503	12	0	0	0	0	426	2	0	0	0	0	511	
15	0	0	0	0	501	13	0	0	0	0	574	3	0	0	0	0	508	
0	0	0	0	0	526	14	0	0	0	0	457	4	0	0	0	0	501	
1	0	0	0	0	490	15	0	0	0	0	524	5	0	0	0	0	520	
2	0	0	0	0	518	0	0	0	0	0	528	6	0	0	0	0	499	
3	0	0	0	0	503	1	0	0	0	0	430	7	0	0	0	0	513	
4	0	0	0	0	503	2	0	0	0	0	573	8	0	0	0	0	509	
5	0	0	0	0	522	3	0	0	0	0	461	9	0	0	0	0	502	
6	0	0	0	0	490	4	0	0	0	0	527	10	0	0	0	0	522	
7	0	0	0	0	519	5	0	0	0	0	527	11	0	0	0	0	503	
8	0	0	0	0	500	6	0	0	0	0	427	12	0	0	0	0	511	
9	0	0	0	0	505	7	0	0	0	0	579	13	0	0	0	0	508	
10	0	0	0	0	521	8	0	0	0	0	451	14	0	0	0	0	499	
11	0	0	0	0	491	9	0	0	0	0	524	15	0	0	0	0	520	
12	0	0	0	0	519	10	0	0	0	0	529	0	0	0	0	0	501	
13	0	0	0	0	504	11	0	0	0	0	422	1	0	0	0	0	511	
14	0	0	0	0	499	12	0	0	0	0	585	2	0	0	0	0	509	
15	0	0	0	0	524	13	0	0	0	0	451	3	0	0	0	0	502	
0	0	0	0	0	494	14	0	0	0	0	534	4	0	0	0	0	520	
1	0	0	0	0	517	15	0	0	0	0	524	5	0	0	0	0	502	
2	0	0	0	0	500	0	0	0	0	0	429	6	0	0	0	0	509	
3	0	0	0	0	504	1	0	0	0	0	585	7	0	0	0	0	507	
4	0	0	0	0	520	2	0	0	0	0	453	8	0	0	0	0	500	
5	0	0	0	0	493	3	0	0	0	0	536	9	0	0	0	0	522	
6	0	0	0	0	518	4	0	0	0	0	516	10	0	0	0	0	499	
7	0	0	0	0	503	5	0	0	0	0	429	11	0	0	0	0	511	
8	0	0	0	0	503	6	0	0	0	0	585	12	0	0	0	0	507	
9	0	0	0	0	523	7	0	0	0	0	449	13	0	0	0	0	500	
10	0	0	0	0	492	8	0	0	0	0	529	14	0	0	0	0	520	
11	0	0	0	0	517	9	0	0	0	0	517	15	0	0	0	0	501	
12	0	0	0	0	501	10	0	0	0	0	431	0	0	0	0	0	508	
13	0	0	0	0	506	11	0	0	0	0	582	1	0	0	0	0	510	
14	0	0	0	0	521	12	0	0	0	0	450	2	0	0	0	0	500	
15	0	0	0	0	493	13	0	0	0	0	529	3	0	0	0	0	521	
0	0	0	0	0	518	14	0	0	0	0	517	4	0	0	0	0	499	
1	0	0	0	0	500	15	0	0	0	0	431	5	0	0	0	0	511	
2	0	0	0	0	502	0	0	0	0	0	580	6	0	0	0	0	508	
3	0	0	0	0	521	1	0	0	0	0	453	7	0	0	0	0	500	
4	0	0	0	0	490	2	0	0	0	0	533	8	0	0	0	0	520	
5	0	0	0	0	519	3	0	0	0	0	516	9	0	0	0	0	501	
6	0	0	0	0	496	4	0	0	0	0	435	10	0	0	0	0	513	
7	0	0	0	0	507	5	0	0	0	0	579	11	0	0	0	0	508	
8	0	0	0	0	520	6	0	0	0	0	453	12	0	0	0	0	499	
9	0	0	0	0	491	7	0	0	0	0	536	13	0	0	0	0	518	
10	0	0	0	0	518	8	0	0	0	0	520	14	0	0	0	0	499	
11	0	0	0	0	499	9	0	0	0	0	433	15	0	0	0	0	512	
12	0	0	0	0	509	10	0	0	0	0	582	0	0	0	0	0	508	
13	0	0	0	0	517	11	0	0	0	0	451	1	0	0	0	0	500	
14	0	0	0	0	493	12	0	0	0	0	528	2	0	0	0	0	520	
15	0	0	0	0	519	13	0	0	0	0	516	3	0	0	0	0	501	
0	0	0	0	0	498	14	0	0	0	0	432	4	0	0	0	0	511	
1	0	0	0	0	506	15	0	0	0	0	580	5	0	0	0	0	507	
2	0	0	0	0	516	0	0	0	0	0	452	6	0	0	0	0	501	
3	0	0	0	0	490	1	0	0	0	0	528	7	0	0	0	0	520	
4	0	0	0	0	519	2	0	0	0	0	518	8	0	0	0	0	501	
5	0	0	0	0	497	3	0	0	0	0	435	9	0	0	0	0	511	
6	0	0	0	0	506	4	0	0	0	0	583	10	0	0	0	0	509	
7	0	0	0	0	518	5	0	0	0	0	450	11	0	0	0	0	502	
8	0	0	0	0	492	6	0	0	0	0	531	12	0	0	0	0	517	
9	0	0	0	0	518	7	0	0	0	0	516	13	0	0	0	0	502	
10	0	0	0	0	501	8	0	0	0	0	434	14	0	0	0	0	510	
11	0	0	0	0	507	9	0	0	0	0	583	15	0	0	0	0	508	
12	0	0	0	0	520	10	0	0	0	0	450	0	0	0	0	0	499	
13	0	0	0	0	492	11	0	0	0	0	530	1	0	0	0	0	519	
14	0	0	0	0	517	12	0	0	0	0	516	2	0	0	0	0	502	
15	0	0	0	0	498	13	0	0	0	0	434	3	0	0	0	0	513	
0	0	0	0	0	511	14	0	0	0	0	586	4	0	0	0	0	508	
1	0	0	0	0	515	15	0	0	0	0	448	5	0	0	0	0	504	
2	0	0	0	0	492	0	0	0	0	0	533	6	0	0	0	0	519	
3	0	0	0	0	518	1	0	0	0	0	515	7	0	0	0	0	500	
4	0	0	0	0	499	2	0	0	0	0	436	8	0	0	0	0	511	
5	0	0	0	0	510	3	0	0	0	0	584	9	0	0	0	0	507	
6	0	0	0	0	517	4	0	0	0	0	447	10	0	0	0	0	501	
7	0	0	0	0	494	5	0	0	0	0	531	11	0	0	0	0	520	
8	0	0	0	0	521	6	0	0	0	0	515	12	0	0	0	0	502	
9	0	0	0	0	495	7	0	0	0	0	437	13	0	0	0	0	510	
10	0	0	0	0	509	8	0	0	0	0	583	14	0	0	0	0	510	
11	0	0	0	0	515	9	0	0	0	0	450	15	0	0	0	0	501	
12	0	0	0	0	495	10	0	0	0	0	533	0	0	0	0	0	517	
13	0	0	0	0	519	11	0	0	0	0	513	1	0	0	0	0	501	
14	0	0	0	0	497	12	0	0	0	0	437	2	0	0	0	0	511	
15	0	0	0	0	510	13	0	0	0	0	585	3	0	0	0	0	510	
0	0	0	0	0	518	14	0	0	0	0	448	4	0	0	0	0	501	
1	0	0	0	0	497	15	0	0	0	0	532	5	0	0	0	0	520	
2	0	0	0	0	518	0	0	0	0	0	512	6	0	0	0	0	501	
3	0	0	0	0	498	1	0	0	0	0	435	7	0	0	0	0	510	
4	0	0	0	0	512	2	0	0	0	0	587	8	0	0	0	0	508	
5	0	0	0	0	512	3	0	0	0	0	448	9	0	0	0	0	500	
6	0	0	0	0	496	4	0	0	0	0	531	10	0	0	0	0	517	
7	0	0	0	0	518	5	0	0	0	0	512	11	0	0	0	0	500	
8	0	0	0	0	497	6	0	0	0	0	440	12	0	0	0	0	509	
9	0	0	0	0	511	7	0	0	0	0	585	13	0	0	0	0	509	
10	0	0	0	0	511	8	0	0	0	0	449	14	0	0	0	0	503	
11	0	0	0	0	496	9	0	0	0	0	533	15	0	0	0	0	518	
12	0	0	0	0	518	10	0	0	0	0	509	0	0	0	0	0	501	
13	0	0	0	0	498	11	0	0	0	0	439	1	0	0	0	0	510	
14	0	0	0	0	513	12	0	0	0	0	585	2	0	0	0	0	508	
15	0	0	0	0	508	13	0	0	0	0	448	3	0	0	0	0	504	
0	0	0	0	0	499	14	0	0	0	0	532	4	0	0	0	0	516	
1	0	0	0	0	515	15	0	0	0	0	510	5	0	0	0	0	501	
2	0	0	0	0	498	0	0	0	0	0	440	6	0	0	0	0	512	
3	0	0	0	0	512	1	0	0	0	0	584	7	0	0	0	0	509	
4	0	0	0	0	506	2	0	0	0	0	450	8	0	0	0	0	501	
5	0	0	0	0	501	3	0	0	0	0	532	9	0	0	0	0	518	
6	0	0	0	0	515	4	0	0	0	0	508	10	0	0	0	0	501	
7	0	0	0	0	498	5	0	0	0	0	440	11	0	0	0	0	509	
8	0	0	0	0	512	6	0	0	0	0	582	12	0	0	0	0	506	
9	0	0	0	0	507	7	0	0	0	0	449	13	0	0	0	0	504	
10	0	0	0	0	502	8	0	0	0	0	530	14	0	0	0	0	519	
11	0	0	0	0	515	9	0	0	0	0	508	15	0	0	0	0	499	
12	0	0	0	0	499	10	0	0	0	0	444	0	0	0	0	0	511	
13	0	0	0	0	513	11	0	0	0	0	583	1	0	0	0	0	507	
14	0	0	0	0	509	12	0	0	0	0	446	2	0	0	0	0	503	
15	0	0	0	0	501	13	0	0	0	0	535	3	0	0	0	0	518	
0	0	0	0	0	515	14	0	0	0	0	508	4	0	0	0	0	498	
1	0	0	0	0	500	15	0	0	0	0	442	5	0	0	0	0	511	
2	0	0	0	0	512	0	0	0	0	0	583	6	0	0	0	0	509	
3	0	0	0	0	508	1	0	0	0	0	448	7	0	0	0	0	501	
4	0	0	0	0	502	2	0	0	0	0	536	8	0	0	0	0	519	
5	0	0	0	0	516	3	0	0	0	0	503	9	0	0	0	0	503	
6	0	0	0	0	498	4	0	0	0	0	445	10	0	0	0	0	510	
7	0	0	0	0	512	5	0	0	0	0	583	11	0	0	0	0	510	
8	0	0	0	0	509	6	0	0	0	0	446	12	0	0	0	0	504	
9	0	0	0	0	500	7	0	0	0	0	534	13	0	0	0	0	518	
10	0	0	0	0	516	8	0	0	0	0	502	14	0	0	0	0	499	
11	0	0	0	0	497	9	0	0	0	0	445	15	0	0	0	0	512	
12	0	0	0	0	511	10	0	0	0	0	585	0	0	0	0	0	506	
13	0	0	0	0	510	11	0	0	0	0	447	1	0	0	0	0	504	
