# OpenSignals Text File Format. Version 1
# {"98:D3:71:FD:62:1F": {"position": 0, "device": "bitalino_rev", "device name": "98:D3:71:FD:62:1F", "device connection": "BTH98:D3:71:FD:62:1F", "sampling rate": 1000, "resolution": [4, 1, 1, 1, 1, 10], "firmware version": 1282, "comments": "", "keywords": "", "mode": 0, "sync interval": 2, "date": "2023-4-12", "time": "11:53:31.729", "channels": [2], "sensor": ["ECGBIT"], "label": ["A2"], "column": ["nSeq", "I1", "I2", "O1", "O2", "A2"], "special": [{}], "digital IO": [0, 0, 1, 1]}}
# EndOfHeader
0	0	0	0	0	878	
1	0	0	0	0	866	
2	0	0	0	0	852	
3	0	0	0	0	836	
4	0	0	0	0	821	
5	0	0	0	0	808	
6	0	0	0	0	795	
7	0	0	0	0	783	
8	0	0	0	0	772	
9	0	0	0	0	759	
10	0	0	0	0	745	
11	0	0	0	0	728	
12	0	0	0	0	715	
13	0	0	0	0	704	
14	0	0	0	0	694	
15	0	0	0	0	684	
0	0	0	0	0	672	
1	0	0	0	0	659	
2	0	0	0	0	644	
3	0	0	0	0	627	
4	0	0	0	0	609	
5	0	0	0	0	596	
6	0	0	0	0	583	
7	0	0	0	0	570	
8	0	0	0	0	559	
9	0	0	0	0	548	
10	0	0	0	0	539	
11	0	0	0	0	533	
12	0	0	0	0	528	
13	0	0	0	0	524	
14	0	0	0	0	517	
15	0	0	0	0	507	
0	0	0	0	0	495	
1	0	0	0	0	484	
2	0	0	0	0	476	
3	0	0	0	0	466	
4	0	0	0	0	460	
5	0	0	0	0	459	
6	0	0	0	0	455	
7	0	0	0	0	449	
8	0	0	0	0	444	
9	0	0	0	0	441	
10	0	0	0	0	435	
11	0	0	0	0	431	
12	0	0	0	0	429	
13	0	0	0	0	427	
14	0	0	0	0	424	
15	0	0	0	0	422	
0	0	0	0	0	419	
1	0	0	0	0	419	
2	0	0	0	0	419	
3	0	0	0	0	416	
4	0	0	0	0	415	
5	0	0	0	0	413	
6	0	0	0	0	409	
7	0	0	0	0	405	
8	0	0	0	0	404	
9	0	0	0	0	403	
10	0	0	0	0	407	
11	0	0	0	0	407	
12	0	0	0	0	406	
13	0	0	0	0	407	
14	0	0	0	0	408	
15	0	0	0	0	408	
0	0	0	0	0	407	
1	0	0	0	0	407	
2	0	0	0	0	406	
3	0	0	0	0	401	
4	0	0	0	0	394	
5	0	0	0	0	390	
6	0	0	0	0	390	
7	0	0	0	0	389	
8	0	0	0	0	387	
9	0	0	0	0	386	
10	0	0	0	0	386	
11	0	0	0	0	388	
12	0	0	0	0	389	
13	0	0	0	0	388	
14	0	0	0	0	387	
15	0	0	0	0	388	
0	0	0	0	0	391	
1	0	0	0	0	388	
2	0	0	0	0	383	
3	0	0	0	0	377	
4	0	0	0	0	376	
5	0	0	0	0	375	
6	0	0	0	0	372	
7	0	0	0	0	366	
8	0	0	0	0	362	
9	0	0	0	0	361	
10	0	0	0	0	357	
11	0	0	0	0	352	
12	0	0	0	0	349	
13	0	0	0	0	349	
14	0	0	0	0	350	
15	0	0	0	0	350	
0	0	0	0	0	350	
1	0	0	0	0	348	
2	0	0	0	0	345	
3	0	0	0	0	342	
4	0	0	0	0	339	
5	0	0	0	0	336	
6	0	0	0	0	332	
7	0	0	0	0	328	
8	0	0	0	0	327	
9	0	0	0	0	324	
10	0	0	0	0	323	
11	0	0	0	0	319	
12	0	0	0	0	316	
13	0	0	0	0	315	
14	0	0	0	0	314	
15	0	0	0	0	313	
0	0	0	0	0	313	
1	0	0	0	0	313	
2	0	0	0	0	312	
3	0	0	0	0	310	
4	0	0	0	0	309	
5	0	0	0	0	307	
6	0	0	0	0	307	
7	0	0	0	0	308	
8	0	0	0	0	309	
9	0	0	0	0	309	
10	0	0	0	0	308	
11	0	0	0	0	308	
12	0	0	0	0	310	
13	0	0	0	0	309	
14	0	0	0	0	309	
15	0	0	0	0	309	
0	0	0	0	0	308	
1	0	0	0	0	312	
2	0	0	0	0	316	
3	0	0	0	0	318	
4	0	0	0	0	314	
5	0	0	0	0	312	
6	0	0	0	0	316	
7	0	0	0	0	320	
8	0	0	0	0	321	
9	0	0	0	0	321	
10	0	0	0	0	324	
11	0	0	0	0	327	
12	0	0	0	0	332	
13	0	0	0	0	338	
14	0	0	0	0	342	
15	0	0	0	0	344	
0	0	0	0	0	348	
1	0	0	0	0	355	
2	0	0	0	0	360	
3	0	0	0	0	365	
4	0	0	0	0	370	
5	0	0	0	0	377	
6	0	0	0	0	382	
7	0	0	0	0	384	
8	0	0	0	0	389	
9	0	0	0	0	397	
10	0	0	0	0	403	
11	0	0	0	0	408	
12	0	0	0	0	410	
13	0	0	0	0	414	
14	0	0	0	0	415	
15	0	0	0	0	418	
0	0	0	0	0	423	
1	0	0	0	0	427	
2	0	0	0	0	432	
3	0	0	0	0	437	
4	0	0	0	0	443	
5	0	0	0	0	450	
6	0	0	0	0	457	
7	0	0	0	0	464	
8	0	0	0	0	467	
9	0	0	0	0	469	
10	0	0	0	0	473	
11	0	0	0	0	478	
12	0	0	0	0	483	
13	0	0	0	0	488	
14	0	0	0	0	492	
15	0	0	0	0	496	
0	0	0	0	0	499	
1	0	0	0	0	504	
2	0	0	0	0	510	
3	0	0	0	0	516	
4	0	0	0	0	519	
5	0	0	0	0	521	
6	0	0	0	0	526	
7	0	0	0	0	529	
8	0	0	0	0	532	
9	0	0	0	0	536	
10	0	0	0	0	538	
11	0	0	0	0	541	
12	0	0	0	0	545	
13	0	0	0	0	547	
14	0	0	0	0	549	
15	0	0	0	0	550	
0	0	0	0	0	549	
1	0	0	0	0	551	
2	0	0	0	0	551	
3	0	0	0	0	557	
4	0	0	0	0	562	
5	0	0	0	0	568	
6	0	0	0	0	572	
7	0	0	0	0	574	
8	0	0	0	0	577	
9	0	0	0	0	577	
10	0	0	0	0	578	
11	0	0	0	0	582	
12	0	0	0	0	583	
13	0	0	0	0	583	
14	0	0	0	0	579	
15	0	0	0	0	575	
0	0	0	0	0	576	
1	0	0	0	0	579	
2	0	0	0	0	582	
3	0	0	0	0	584	
4	0	0	0	0	585	
5	0	0	0	0	583	
6	0	0	0	0	582	
7	0	0	0	0	584	
8	0	0	0	0	586	
9	0	0	0	0	588	
10	0	0	0	0	588	
11	0	0	0	0	586	
12	0	0	0	0	582	
13	0	0	0	0	579	
14	0	0	0	0	575	
15	0	0	0	0	575	
0	0	0	0	0	575	
1	0	0	0	0	579	
2	0	0	0	0	585	
3	0	0	0	0	590	
4	0	0	0	0	594	
5	0	0	0	0	596	
6	0	0	0	0	597	
7	0	0	0	0	599	
8	0	0	0	0	600	
9	0	0	0	0	601	
10	0	0	0	0	598	
11	0	0	0	0	595	
12	0	0	0	0	594	
13	0	0	0	0	594	
14	0	0	0	0	596	
15	0	0	0	0	597	
0	0	0	0	0	597	
1	0	0	0	0	597	
2	0	0	0	0	595	
3	0	0	0	0	592	
4	0	0	0	0	593	
5	0	0	0	0	595	
6	0	0	0	0	593	
7	0	0	0	0	593	
8	0	0	0	0	592	
9	0	0	0	0	588	
10	0	0	0	0	590	
11	0	0	0	0	591	
12	0	0	0	0	590	
13	0	0	0	0	591	
14	0	0	0	0	591	
15	0	0	0	0	592	
0	0	0	0	0	593	
1	0	0	0	0	594	
2	0	0	0	0	594	
3	0	0	0	0	595	
4	0	0	0	0	598	
5	0	0	0	0	598	
6	0	0	0	0	600	
7	0	0	0	0	602	
8	0	0	0	0	596	
9	0	0	0	0	591	
10	0	0	0	0	592	
11	0	0	0	0	595	
12	0	0	0	0	599	
13	0	0	0	0	601	
14	0	0	0	0	603	
15	0	0	0	0	603	
0	0	0	0	0	601	
1	0	0	0	0	601	
2	0	0	0	0	603	
3	0	0	0	0	605	
4	0	0	0	0	607	
5	0	0	0	0	609	
6	0	0	0	0	612	
7	0	0	0	0	614	
8	0	0	0	0	616	
9	0	0	0	0	615	
10	0	0	0	0	612	
11	0	0	0	0	611	
12	0	0	0	0	607	
13	0	0	0	0	603	
14	0	0	0	0	602	
15	0	0	0	0	598	
0	0	0	0	0	590	
1	0	0	0	0	589	
2	0	0	0	0	590	
3	0	0	0	0	595	
4	0	0	0	0	598	
5	0	0	0	0	598	
6	0	0	0	0	595	
7	0	0	0	0	595	
8	0	0	0	0	595	
9	0	0	0	0	592	
10	0	0	0	0	589	
11	0	0	0	0	588	
12	0	0	0	0	588	
13	0	0	0	0	588	
14	0	0	0	0	590	
15	0	0	0	0	590	
0	0	0	0	0	590	
1	0	0	0	0	586	
2	0	0	0	0	581	
3	0	0	0	0	578	
4	0	0	0	0	575	
5	0	0	0	0	574	
6	0	0	0	0	575	
7	0	0	0	0	573	
8	0	0	0	0	571	
9	0	0	0	0	568	
10	0	0	0	0	565	
11	0	0	0	0	562	
12	0	0	0	0	557	
13	0	0	0	0	554	
14	0	0	0	0	548	
15	0	0	0	0	542	
0	0	0	0	0	535	
1	0	0	0	0	531	
2	0	0	0	0	525	
3	0	0	0	0	520	
4	0	0	0	0	514	
5	0	0	0	0	507	
6	0	0	0	0	502	
7	0	0	0	0	495	
8	0	0	0	0	487	
9	0	0	0	0	480	
10	0	0	0	0	473	
11	0	0	0	0	470	
12	0	0	0	0	465	
13	0	0	0	0	460	
14	0	0	0	0	458	
15	0	0	0	0	458	
0	0	0	0	0	462	
1	0	0	0	0	467	
2	0	0	0	0	474	
3	0	0	0	0	485	
4	0	0	0	0	498	
5	0	0	0	0	512	
6	0	0	0	0	529	
7	0	0	0	0	547	
8	0	0	0	0	568	
9	0	0	0	0	593	
10	0	0	0	0	622	
11	0	0	0	0	652	
12	0	0	0	0	682	
13	0	0	0	0	707	
14	0	0	0	0	733	
15	0	0	0	0	764	
0	0	0	0	0	795	
1	0	0	0	0	819	
2	0	0	0	0	839	
3	0	0	0	0	856	
4	0	0	0	0	870	
5	0	0	0	0	883	
6	0	0	0	0	890	
7	0	0	0	0	896	
8	0	0	0	0	899	
9	0	0	0	0	895	
10	0	0	0	0	893	
11	0	0	0	0	890	
12	0	0	0	0	881	
13	0	0	0	0	871	
14	0	0	0	0	860	
15	0	0	0	0	853	
0	0	0	0	0	843	
1	0	0	0	0	831	
2	0	0	0	0	819	
3	0	0	0	0	805	
4	0	0	0	0	794	
5	0	0	0	0	783	
6	0	0	0	0	772	
7	0	0	0	0	764	
8	0	0	0	0	756	
9	0	0	0	0	748	
10	0	0	0	0	735	
11	0	0	0	0	723	
12	0	0	0	0	711	
13	0	0	0	0	702	
14	0	0	0	0	694	
15	0	0	0	0	688	
0	0	0	0	0	682	
1	0	0	0	0	672	
2	0	0	0	0	660	
3	0	0	0	0	651	
4	0	0	0	0	643	
5	0	0	0	0	632	
6	0	0	0	0	619	
7	0	0	0	0	609	
8	0	0	0	0	600	
9	0	0	0	0	591	
10	0	0	0	0	582	
11	0	0	0	0	572	
12	0	0	0	0	566	
13	0	0	0	0	560	
14	0	0	0	0	550	
15	0	0	0	0	538	
0	0	0	0	0	527	
1	0	0	0	0	519	
2	0	0	0	0	510	
3	0	0	0	0	504	
4	0	0	0	0	498	
5	0	0	0	0	492	
6	0	0	0	0	486	
7	0	0	0	0	479	
8	0	0	0	0	472	
9	0	0	0	0	466	
10	0	0	0	0	459	
11	0	0	0	0	456	
12	0	0	0	0	453	
13	0	0	0	0	446	
14	0	0	0	0	438	
15	0	0	0	0	432	
0	0	0	0	0	430	
1	0	0	0	0	427	
2	0	0	0	0	424	
3	0	0	0	0	421	
4	0	0	0	0	418	
5	0	0	0	0	416	
6	0	0	0	0	412	
7	0	0	0	0	408	
8	0	0	0	0	408	
9	0	0	0	0	409	
10	0	0	0	0	411	
11	0	0	0	0	411	
12	0	0	0	0	410	
13	0	0	0	0	409	
14	0	0	0	0	410	
15	0	0	0	0	412	
0	0	0	0	0	411	
1	0	0	0	0	408	
2	0	0	0	0	403	
3	0	0	0	0	401	
4	0	0	0	0	400	
5	0	0	0	0	400	
6	0	0	0	0	399	
7	0	0	0	0	398	
8	0	0	0	0	398	
9	0	0	0	0	400	
10	0	0	0	0	401	
11	0	0	0	0	401	
12	0	0	0	0	399	
13	0	0	0	0	395	
14	0	0	0	0	392	
15	0	0	0	0	391	
0	0	0	0	0	391	
1	0	0	0	0	388	
2	0	0	0	0	384	
3	0	0	0	0	380	
4	0	0	0	0	378	
5	0	0	0	0	378	
6	0	0	0	0	376	
7	0	0	0	0	375	
8	0	0	0	0	375	
9	0	0	0	0	375	
10	0	0	0	0	375	
11	0	0	0	0	375	
12	0	0	0	0	374	
13	0	0	0	0	374	
14	0	0	0	0	373	
15	0	0	0	0	369	
0	0	0	0	0	364	
1	0	0	0	0	359	
2	0	0	0	0	355	
3	0	0	0	0	353	
4	0	0	0	0	350	
5	0	0	0	0	344	
6	0	0	0	0	338	
7	0	0	0	0	334	
8	0	0	0	0	331	
9	0	0	0	0	327	
10	0	0	0	0	326	
11	0	0	0	0	323	
12	0	0	0	0	321	
13	0	0	0	0	319	
14	0	0	0	0	316	
15	0	0	0	0	317	
0	0	0	0	0	316	
1	0	0	0	0	316	
2	0	0	0	0	318	
3	0	0	0	0	319	
4	0	0	0	0	320	
5	0	0	0	0	321	
6	0	0	0	0	318	
7	0	0	0	0	314	
8	0	0	0	0	312	
9	0	0	0	0	314	
10	0	0	0	0	314	
11	0	0	0	0	316	
12	0	0	0	0	315	
13	0	0	0	0	316	
14	0	0	0	0	318	
15	0	0	0	0	321	
0	0	0	0	0	323	
1	0	0	0	0	324	
2	0	0	0	0	326	
3	0	0	0	0	329	
4	0	0	0	0	329	
5	0	0	0	0	329	
6	0	0	0	0	329	
7	0	0	0	0	330	
8	0	0	0	0	331	
9	0	0	0	0	332	
10	0	0	0	0	332	
11	0	0	0	0	333	
12	0	0	0	0	334	
13	0	0	0	0	337	
14	0	0	0	0	341	
15	0	0	0	0	343	
0	0	0	0	0	345	
1	0	0	0	0	350	
2	0	0	0	0	353	
3	0	0	0	0	358	
4	0	0	0	0	364	
5	0	0	0	0	369	
6	0	0	0	0	373	
7	0	0	0	0	379	
8	0	0	0	0	384	
9	0	0	0	0	389	
10	0	0	0	0	393	
11	0	0	0	0	399	
12	0	0	0	0	405	
13	0	0	0	0	411	
14	0	0	0	0	416	
15	0	0	0	0	421	
0	0	0	0	0	425	
1	0	0	0	0	430	
2	0	0	0	0	435	
3	0	0	0	0	440	
4	0	0	0	0	443	
5	0	0	0	0	446	
6	0	0	0	0	450	
7	0	0	0	0	453	
8	0	0	0	0	456	
9	0	0	0	0	460	
10	0	0	0	0	465	
11	0	0	0	0	471	
12	0	0	0	0	473	
13	0	0	0	0	474	
14	0	0	0	0	477	
15	0	0	0	0	480	
0	0	0	0	0	484	
1	0	0	0	0	488	
2	0	0	0	0	491	
3	0	0	0	0	492	
4	0	0	0	0	491	
5	0	0	0	0	487	
6	0	0	0	0	482	
7	0	0	0	0	480	
8	0	0	0	0	480	
9	0	0	0	0	482	
10	0	0	0	0	483	
11	0	0	0	0	483	
12	0	0	0	0	480	
13	0	0	0	0	480	
14	0	0	0	0	486	
15	0	0	0	0	500	
0	0	0	0	0	521	
1	0	0	0	0	543	
2	0	0	0	0	559	
3	0	0	0	0	569	
4	0	0	0	0	571	
5	0	0	0	0	571	
6	0	0	0	0	569	
7	0	0	0	0	567	
8	0	0	0	0	564	
9	0	0	0	0	562	
10	0	0	0	0	562	
11	0	0	0	0	563	
12	0	0	0	0	563	
13	0	0	0	0	562	
14	0	0	0	0	561	
15	0	0	0	0	560	
0	0	0	0	0	560	
1	0	0	0	0	560	
2	0	0	0	0	559	
3	0	0	0	0	558	
4	0	0	0	0	558	
5	0	0	0	0	556	
6	0	0	0	0	552	
7	0	0	0	0	551	
8	0	0	0	0	550	
9	0	0	0	0	551	
10	0	0	0	0	551	
11	0	0	0	0	550	
12	0	0	0	0	548	
13	0	0	0	0	550	
14	0	0	0	0	553	
15	0	0	0	0	558	
0	0	0	0	0	559	
1	0	0	0	0	558	
2	0	0	0	0	557	
3	0	0	0	0	555	
4	0	0	0	0	551	
5	0	0	0	0	551	
6	0	0	0	0	553	
7	0	0	0	0	556	
8	0	0	0	0	559	
9	0	0	0	0	561	
10	0	0	0	0	565	
11	0	0	0	0	567	
12	0	0	0	0	566	
13	0	0	0	0	563	
14	0	0	0	0	560	
15	0	0	0	0	558	
0	0	0	0	0	557	
1	0	0	0	0	556	
2	0	0	0	0	555	
3	0	0	0	0	555	
4	0	0	0	0	555	
5	0	0	0	0	556	
6	0	0	0	0	556	
7	0	0	0	0	557	
8	0	0	0	0	557	
9	0	0	0	0	558	
10	0	0	0	0	559	
11	0	0	0	0	559	
12	0	0	0	0	558	
13	0	0	0	0	556	
14	0	0	0	0	556	
15	0	0	0	0	556	
0	0	0	0	0	557	
1	0	0	0	0	560	
2	0	0	0	0	564	
3	0	0	0	0	568	
4	0	0	0	0	569	
5	0	0	0	0	568	
6	0	0	0	0	567	
7	0	0	0	0	568	
8	0	0	0	0	569	
9	0	0	0	0	569	
10	0	0	0	0	569	
11	0	0	0	0	569	
12	0	0	0	0	568	
13	0	0	0	0	568	
14	0	0	0	0	568	
15	0	0	0	0	566	
0	0	0	0	0	566	
1	0	0	0	0	567	
2	0	0	0	0	567	
3	0	0	0	0	569	
4	0	0	0	0	569	
5	0	0	0	0	569	
6	0	0	0	0	569	
7	0	0	0	0	567	
8	0	0	0	0	565	
9	0	0	0	0	563	
10	0	0	0	0	564	
11	0	0	0	0	566	
12	0	0	0	0	567	
13	0	0	0	0	565	
14	0	0	0	0	563	
15	0	0	0	0	559	
0	0	0	0	0	556	
1	0	0	0	0	557	
2	0	0	0	0	561	
3	0	0	0	0	563	
4	0	0	0	0	561	
5	0	0	0	0	561	
6	0	0	0	0	561	
7	0	0	0	0	561	
8	0	0	0	0	557	
9	0	0	0	0	554	
10	0	0	0	0	553	
11	0	0	0	0	552	
12	0	0	0	0	549	
13	0	0	0	0	545	
14	0	0	0	0	543	
15	0	0	0	0	542	
0	0	0	0	0	543	
1	0	0	0	0	542	
2	0	0	0	0	537	
3	0	0	0	0	533	
4	0	0	0	0	528	
5	0	0	0	0	525	
6	0	0	0	0	523	
7	0	0	0	0	522	
8	0	0	0	0	518	
9	0	0	0	0	511	
10	0	0	0	0	508	
11	0	0	0	0	506	
12	0	0	0	0	504	
13	0	0	0	0	502	
14	0	0	0	0	498	
15	0	0	0	0	493	
0	0	0	0	0	489	
1	0	0	0	0	485	
2	0	0	0	0	479	
3	0	0	0	0	473	
4	0	0	0	0	467	
5	0	0	0	0	462	
6	0	0	0	0	455	
7	0	0	0	0	452	
8	0	0	0	0	447	
9	0	0	0	0	440	
10	0	0	0	0	435	
11	0	0	0	0	431	
12	0	0	0	0	428	
13	0	0	0	0	427	
14	0	0	0	0	427	
15	0	0	0	0	430	
0	0	0	0	0	434	
1	0	0	0	0	440	
2	0	0	0	0	448	
3	0	0	0	0	459	
4	0	0	0	0	472	
5	0	0	0	0	491	
6	0	0	0	0	513	
7	0	0	0	0	536	
8	0	0	0	0	557	
9	0	0	0	0	583	
10	0	0	0	0	612	
11	0	0	0	0	642	
12	0	0	0	0	672	
13	0	0	0	0	704	
14	0	0	0	0	738	
15	0	0	0	0	769	
0	0	0	0	0	797	
1	0	0	0	0	821	
2	0	0	0	0	836	
3	0	0	0	0	845	
4	0	0	0	0	852	
5	0	0	0	0	856	
6	0	0	0	0	855	
7	0	0	0	0	851	
8	0	0	0	0	848	
9	0	0	0	0	844	
10	0	0	0	0	837	
11	0	0	0	0	834	
12	0	0	0	0	830	
13	0	0	0	0	823	
14	0	0	0	0	815	
15	0	0	0	0	807	
0	0	0	0	0	799	
1	0	0	0	0	790	
2	0	0	0	0	781	
3	0	0	0	0	773	
4	0	0	0	0	764	
5	0	0	0	0	753	
6	0	0	0	0	743	
7	0	0	0	0	733	
8	0	0	0	0	721	
9	0	0	0	0	709	
10	0	0	0	0	696	
11	0	0	0	0	682	
12	0	0	0	0	672	
13	0	0	0	0	663	
14	0	0	0	0	654	
15	0	0	0	0	644	
0	0	0	0	0	632	
1	0	0	0	0	619	
2	0	0	0	0	606	
3	0	0	0	0	595	
4	0	0	0	0	585	
5	0	0	0	0	574	
6	0	0	0	0	564	
7	0	0	0	0	554	
8	0	0	0	0	548	
9	0	0	0	0	539	
10	0	0	0	0	529	
11	0	0	0	0	522	
12	0	0	0	0	514	
13	0	0	0	0	506	
14	0	0	0	0	497	
15	0	0	0	0	491	
0	0	0	0	0	484	
1	0	0	0	0	477	
2	0	0	0	0	468	
3	0	0	0	0	461	
4	0	0	0	0	455	
5	0	0	0	0	447	
6	0	0	0	0	440	
7	0	0	0	0	435	
8	0	0	0	0	428	
9	0	0	0	0	425	
10	0	0	0	0	420	
11	0	0	0	0	415	
12	0	0	0	0	411	
13	0	0	0	0	407	
14	0	0	0	0	403	
15	0	0	0	0	400	
0	0	0	0	0	398	
1	0	0	0	0	394	
2	0	0	0	0	393	
3	0	0	0	0	391	
4	0	0	0	0	392	
5	0	0	0	0	391	
6	0	0	0	0	389	
7	0	0	0	0	386	
8	0	0	0	0	384	
9	0	0	0	0	384	
10	0	0	0	0	384	
11	0	0	0	0	382	
12	0	0	0	0	381	
13	0	0	0	0	382	
14	0	0	0	0	382	
15	0	0	0	0	382	
0	0	0	0	0	381	
1	0	0	0	0	380	
2	0	0	0	0	380	
3	0	0	0	0	379	
4	0	0	0	0	380	
5	0	0	0	0	380	
6	0	0	0	0	381	
7	0	0	0	0	383	
8	0	0	0	0	382	
9	0	0	0	0	381	
10	0	0	0	0	380	
11	0	0	0	0	380	
12	0	0	0	0	379	
13	0	0	0	0	378	
14	0	0	0	0	380	
15	0	0	0	0	380	
0	0	0	0	0	381	
1	0	0	0	0	381	
2	0	0	0	0	377	
3	0	0	0	0	373	
4	0	0	0	0	370	
5	0	0	0	0	366	
6	0	0	0	0	363	
7	0	0	0	0	359	
8	0	0	0	0	355	
9	0	0	0	0	353	
10	0	0	0	0	351	
11	0	0	0	0	348	
12	0	0	0	0	349	
13	0	0	0	0	347	
14	0	0	0	0	344	
15	0	0	0	0	340	
0	0	0	0	0	339	
1	0	0	0	0	339	
2	0	0	0	0	336	
3	0	0	0	0	334	
4	0	0	0	0	332	
5	0	0	0	0	327	
6	0	0	0	0	323	
7	0	0	0	0	321	
8	0	0	0	0	320	
9	0	0	0	0	318	
10	0	0	0	0	315	
11	0	0	0	0	311	
12	0	0	0	0	307	
13	0	0	0	0	305	
14	0	0	0	0	304	
15	0	0	0	0	302	
0	0	0	0	0	300	
1	0	0	0	0	301	
2	0	0	0	0	301	
3	0	0	0	0	299	
4	0	0	0	0	293	
5	0	0	0	0	289	
6	0	0	0	0	289	
7	0	0	0	0	289	
8	0	0	0	0	291	
9	0	0	0	0	291	
10	0	0	0	0	291	
11	0	0	0	0	295	
12	0	0	0	0	297	
13	0	0	0	0	300	
14	0	0	0	0	301	
15	0	0	0	0	299	
0	0	0	0	0	299	
1	0	0	0	0	299	
2	0	0	0	0	301	
3	0	0	0	0	303	
4	0	0	0	0	304	
5	0	0	0	0	306	
6	0	0	0	0	308	
7	0	0	0	0	311	
8	0	0	0	0	315	
9	0	0	0	0	318	
10	0	0	0	0	319	
11	0	0	0	0	321	
12	0	0	0	0	323	
13	0	0	0	0	327	
14	0	0	0	0	332	
15	0	0	0	0	337	
0	0	0	0	0	344	
1	0	0	0	0	347	
2	0	0	0	0	349	
3	0	0	0	0	353	
4	0	0	0	0	359	
5	0	0	0	0	364	
6	0	0	0	0	371	
7	0	0	0	0	377	
8	0	0	0	0	380	
9	0	0	0	0	383	
10	0	0	0	0	387	
11	0	0	0	0	391	
12	0	0	0	0	396	
13	0	0	0	0	403	
14	0	0	0	0	408	
15	0	0	0	0	414	
0	0	0	0	0	418	
1	0	0	0	0	423	
2	0	0	0	0	429	
3	0	0	0	0	433	
4	0	0	0	0	439	
5	0	0	0	0	444	
6	0	0	0	0	450	
7	0	0	0	0	454	
8	0	0	0	0	458	
9	0	0	0	0	461	
10	0	0	0	0	464	
11	0	0	0	0	468	
12	0	0	0	0	473	
13	0	0	0	0	478	
14	0	0	0	0	483	
15	0	0	0	0	488	
0	0	0	0	0	493	
1	0	0	0	0	496	
2	0	0	0	0	496	
3	0	0	0	0	496	
4	0	0	0	0	499	
5	0	0	0	0	505	
6	0	0	0	0	510	
7	0	0	0	0	515	
8	0	0	0	0	523	
9	0	0	0	0	527	
10	0	0	0	0	529	
11	0	0	0	0	528	
12	0	0	0	0	530	
13	0	0	0	0	536	
14	0	0	0	0	540	
15	0	0	0	0	542	
0	0	0	0	0	540	
1	0	0	0	0	540	
2	0	0	0	0	543	
3	0	0	0	0	543	
4	0	0	0	0	543	
5	0	0	0	0	544	
6	0	0	0	0	545	
7	0	0	0	0	546	
8	0	0	0	0	545	
9	0	0	0	0	544	
10	0	0	0	0	545	
11	0	0	0	0	548	
12	0	0	0	0	550	
13	0	0	0	0	552	
14	0	0	0	0	551	
15	0	0	0	0	551	
0	0	0	0	0	551	
1	0	0	0	0	553	
2	0	0	0	0	553	
3	0	0	0	0	553	
4	0	0	0	0	553	
5	0	0	0	0	553	
6	0	0	0	0	556	
7	0	0	0	0	556	
8	0	0	0	0	556	
9	0	0	0	0	555	
10	0	0	0	0	555	
11	0	0	0	0	557	
12	0	0	0	0	560	
13	0	0	0	0	563	
14	0	0	0	0	563	
15	0	0	0	0	566	
0	0	0	0	0	568	
1	0	0	0	0	568	
2	0	0	0	0	571	
3	0	0	0	0	570	
4	0	0	0	0	571	
5	0	0	0	0	572	
6	0	0	0	0	573	
7	0	0	0	0	571	
8	0	0	0	0	570	
9	0	0	0	0	563	
10	0	0	0	0	558	
11	0	0	0	0	555	
12	0	0	0	0	555	
13	0	0	0	0	553	
14	0	0	0	0	554	
15	0	0	0	0	557	
0	0	0	0	0	559	
1	0	0	0	0	559	
2	0	0	0	0	561	
3	0	0	0	0	565	
4	0	0	0	0	568	
5	0	0	0	0	571	
6	0	0	0	0	571	
7	0	0	0	0	572	
8	0	0	0	0	572	
9	0	0	0	0	572	
10	0	0	0	0	574	
11	0	0	0	0	576	
12	0	0	0	0	577	
13	0	0	0	0	579	
14	0	0	0	0	582	
15	0	0	0	0	582	
0	0	0	0	0	583	
1	0	0	0	0	588	
2	0	0	0	0	590	
3	0	0	0	0	590	
4	0	0	0	0	589	
5	0	0	0	0	590	
6	0	0	0	0	590	
7	0	0	0	0	590	
8	0	0	0	0	591	
9	0	0	0	0	590	
10	0	0	0	0	589	
11	0	0	0	0	588	
12	0	0	0	0	588	
13	0	0	0	0	591	
14	0	0	0	0	591	
15	0	0	0	0	590	
0	0	0	0	0	592	
1	0	0	0	0	592	
2	0	0	0	0	591	
3	0	0	0	0	591	
4	0	0	0	0	588	
5	0	0	0	0	585	
6	0	0	0	0	585	
7	0	0	0	0	585	
8	0	0	0	0	583	
9	0	0	0	0	578	
10	0	0	0	0	575	
11	0	0	0	0	575	
12	0	0	0	0	575	
13	0	0	0	0	575	
14	0	0	0	0	574	
15	0	0	0	0	572	
0	0	0	0	0	570	
1	0	0	0	0	569	
2	0	0	0	0	572	
3	0	0	0	0	573	
4	0	0	0	0	573	
5	0	0	0	0	575	
6	0	0	0	0	574	
7	0	0	0	0	568	
8	0	0	0	0	563	
9	0	0	0	0	557	
10	0	0	0	0	551	
11	0	0	0	0	547	
12	0	0	0	0	544	
13	0	0	0	0	539	
14	0	0	0	0	532	
15	0	0	0	0	528	
0	0	0	0	0	524	
1	0	0	0	0	519	
2	0	0	0	0	515	
3	0	0	0	0	515	
4	0	0	0	0	513	
5	0	0	0	0	510	
6	0	0	0	0	506	
7	0	0	0	0	500	
8	0	0	0	0	495	
9	0	0	0	0	488	
10	0	0	0	0	484	
11	0	0	0	0	479	
12	0	0	0	0	474	
13	0	0	0	0	470	
14	0	0	0	0	465	
15	0	0	0	0	462	
0	0	0	0	0	459	
1	0	0	0	0	455	
2	0	0	0	0	453	
3	0	0	0	0	452	
4	0	0	0	0	455	
5	0	0	0	0	455	
6	0	0	0	0	455	
7	0	0	0	0	459	
8	0	0	0	0	467	
9	0	0	0	0	476	
10	0	0	0	0	488	
11	0	0	0	0	504	
12	0	0	0	0	524	
13	0	0	0	0	546	
14	0	0	0	0	571	
15	0	0	0	0	597	
0	0	0	0	0	628	
1	0	0	0	0	660	
2	0	0	0	0	689	
3	0	0	0	0	721	
4	0	0	0	0	758	
5	0	0	0	0	797	
6	0	0	0	0	832	
7	0	0	0	0	862	
8	0	0	0	0	886	
9	0	0	0	0	907	
10	0	0	0	0	920	
11	0	0	0	0	924	
12	0	0	0	0	925	
13	0	0	0	0	926	
14	0	0	0	0	924	
15	0	0	0	0	920	
0	0	0	0	0	917	
1	0	0	0	0	912	
2	0	0	0	0	907	
3	0	0	0	0	899	
4	0	0	0	0	889	
5	0	0	0	0	876	
6	0	0	0	0	862	
7	0	0	0	0	848	
8	0	0	0	0	833	
9	0	0	0	0	818	
10	0	0	0	0	806	
11	0	0	0	0	795	
12	0	0	0	0	782	
13	0	0	0	0	767	
14	0	0	0	0	752	
15	0	0	0	0	740	
0	0	0	0	0	727	
1	0	0	0	0	715	
2	0	0	0	0	702	
3	0	0	0	0	689	
4	0	0	0	0	679	
5	0	0	0	0	668	
6	0	0	0	0	656	
7	0	0	0	0	641	
8	0	0	0	0	626	
9	0	0	0	0	614	
10	0	0	0	0	601	
11	0	0	0	0	586	
12	0	0	0	0	571	
13	0	0	0	0	559	
14	0	0	0	0	547	
15	0	0	0	0	536	
0	0	0	0	0	528	
1	0	0	0	0	520	
2	0	0	0	0	510	
3	0	0	0	0	501	
4	0	0	0	0	493	
5	0	0	0	0	486	
6	0	0	0	0	477	
7	0	0	0	0	469	
8	0	0	0	0	462	
9	0	0	0	0	455	
10	0	0	0	0	448	
11	0	0	0	0	440	
12	0	0	0	0	436	
13	0	0	0	0	435	
14	0	0	0	0	432	
15	0	0	0	0	428	
0	0	0	0	0	425	
1	0	0	0	0	423	
2	0	0	0	0	422	
3	0	0	0	0	417	
4	0	0	0	0	415	
5	0	0	0	0	412	
6	0	0	0	0	414	
7	0	0	0	0	411	
8	0	0	0	0	405	
9	0	0	0	0	401	
10	0	0	0	0	401	
11	0	0	0	0	400	
12	0	0	0	0	399	
13	0	0	0	0	398	
14	0	0	0	0	396	
15	0	0	0	0	395	
0	0	0	0	0	392	
1	0	0	0	0	389	
2	0	0	0	0	388	
3	0	0	0	0	390	
4	0	0	0	0	390	
5	0	0	0	0	389	
6	0	0	0	0	388	
7	0	0	0	0	388	
8	0	0	0	0	388	
9	0	0	0	0	388	
10	0	0	0	0	388	
11	0	0	0	0	389	
12	0	0	0	0	387	
13	0	0	0	0	385	
14	0	0	0	0	384	
15	0	0	0	0	385	
0	0	0	0	0	385	
1	0	0	0	0	381	
2	0	0	0	0	379	
3	0	0	0	0	377	
4	0	0	0	0	377	
5	0	0	0	0	376	
6	0	0	0	0	375	
7	0	0	0	0	373	
8	0	0	0	0	371	
9	0	0	0	0	371	
10	0	0	0	0	369	
11	0	0	0	0	366	
12	0	0	0	0	361	
13	0	0	0	0	359	
14	0	0	0	0	358	
15	0	0	0	0	354	
0	0	0	0	0	350	
1	0	0	0	0	347	
2	0	0	0	0	346	
3	0	0	0	0	344	
4	0	0	0	0	344	
5	0	0	0	0	343	
6	0	0	0	0	342	
7	0	0	0	0	339	
8	0	0	0	0	337	
9	0	0	0	0	335	
10	0	0	0	0	332	
11	0	0	0	0	327	
12	0	0	0	0	323	
13	0	0	0	0	318	
14	0	0	0	0	315	
15	0	0	0	0	313	
0	0	0	0	0	310	
1	0	0	0	0	307	
2	0	0	0	0	304	
3	0	0	0	0	301	
4	0	0	0	0	298	
5	0	0	0	0	295	
6	0	0	0	0	294	
7	0	0	0	0	293	
8	0	0	0	0	291	
9	0	0	0	0	289	
10	0	0	0	0	290	
11	0	0	0	0	288	
12	0	0	0	0	286	
13	0	0	0	0	284	
14	0	0	0	0	285	
15	0	0	0	0	286	
0	0	0	0	0	287	
1	0	0	0	0	286	
2	0	0	0	0	286	
3	0	0	0	0	286	
4	0	0	0	0	287	
5	0	0	0	0	289	
6	0	0	0	0	289	
7	0	0	0	0	291	
8	0	0	0	0	294	
9	0	0	0	0	295	
10	0	0	0	0	299	
11	0	0	0	0	302	
12	0	0	0	0	304	
13	0	0	0	0	305	
14	0	0	0	0	307	
15	0	0	0	0	309	
0	0	0	0	0	311	
1	0	0	0	0	313	
2	0	0	0	0	313	
3	0	0	0	0	315	
4	0	0	0	0	319	
5	0	0	0	0	323	
6	0	0	0	0	328	
7	0	0	0	0	335	
8	0	0	0	0	342	
9	0	0	0	0	349	
10	0	0	0	0	355	
11	0	0	0	0	362	
12	0	0	0	0	369	
13	0	0	0	0	375	
14	0	0	0	0	379	
15	0	0	0	0	384	
0	0	0	0	0	390	
1	0	0	0	0	394	
2	0	0	0	0	397	
3	0	0	0	0	397	
4	0	0	0	0	401	
5	0	0	0	0	406	
6	0	0	0	0	409	
7	0	0	0	0	411	
8	0	0	0	0	417	
9	0	0	0	0	424	
10	0	0	0	0	431	
11	0	0	0	0	438	
12	0	0	0	0	445	
13	0	0	0	0	451	
14	0	0	0	0	457	
15	0	0	0	0	462	
0	0	0	0	0	466	
1	0	0	0	0	470	
2	0	0	0	0	475	
3	0	0	0	0	479	
4	0	0	0	0	482	
5	0	0	0	0	484	
6	0	0	0	0	487	
7	0	0	0	0	492	
8	0	0	0	0	495	
9	0	0	0	0	500	
10	0	0	0	0	505	
11	0	0	0	0	509	
12	0	0	0	0	513	
13	0	0	0	0	517	
14	0	0	0	0	520	
15	0	0	0	0	524	
0	0	0	0	0	527	
1	0	0	0	0	529	
2	0	0	0	0	532	
3	0	0	0	0	534	
4	0	0	0	0	536	
5	0	0	0	0	540	
6	0	0	0	0	543	
7	0	0	0	0	545	
8	0	0	0	0	548	
9	0	0	0	0	551	
10	0	0	0	0	555	
11	0	0	0	0	557	
12	0	0	0	0	560	
13	0	0	0	0	563	
14	0	0	0	0	565	
15	0	0	0	0	568	
0	0	0	0	0	568	
1	0	0	0	0	569	
2	0	0	0	0	570	
3	0	0	0	0	571	
4	0	0	0	0	573	
5	0	0	0	0	572	
6	0	0	0	0	569	
7	0	0	0	0	569	
8	0	0	0	0	568	
9	0	0	0	0	567	
10	0	0	0	0	566	
11	0	0	0	0	567	
12	0	0	0	0	567	
13	0	0	0	0	568	
14	0	0	0	0	571	
15	0	0	0	0	572	
0	0	0	0	0	573	
1	0	0	0	0	575	
2	0	0	0	0	574	
3	0	0	0	0	572	
4	0	0	0	0	572	
5	0	0	0	0	573	
6	0	0	0	0	574	
7	0	0	0	0	576	
8	0	0	0	0	579	
9	0	0	0	0	580	
10	0	0	0	0	582	
11	0	0	0	0	583	
12	0	0	0	0	585	
13	0	0	0	0	584	
14	0	0	0	0	583	
15	0	0	0	0	584	
0	0	0	0	0	584	
1	0	0	0	0	584	
2	0	0	0	0	584	
3	0	0	0	0	582	
4	0	0	0	0	581	
5	0	0	0	0	579	
6	0	0	0	0	578	
7	0	0	0	0	578	
8	0	0	0	0	576	
9	0	0	0	0	575	
10	0	0	0	0	573	
11	0	0	0	0	571	
12	0	0	0	0	571	
13	0	0	0	0	571	
14	0	0	0	0	572	
15	0	0	0	0	575	
0	0	0	0	0	577	
1	0	0	0	0	577	
2	0	0	0	0	578	
3	0	0	0	0	579	
4	0	0	0	0	577	
5	0	0	0	0	576	
6	0	0	0	0	578	
7	0	0	0	0	579	
8	0	0	0	0	581	
9	0	0	0	0	582	
10	0	0	0	0	582	
11	0	0	0	0	583	
12	0	0	0	0	586	
13	0	0	0	0	588	
14	0	0	0	0	592	
15	0	0	0	0	595	
0	0	0	0	0	595	
1	0	0	0	0	596	
2	0	0	0	0	598	
3	0	0	0	0	600	
4	0	0	0	0	603	
5	0	0	0	0	604	
6	0	0	0	0	601	
7	0	0	0	0	599	
8	0	0	0	0	599	
9	0	0	0	0	597	
10	0	0	0	0	595	
11	0	0	0	0	593	
12	0	0	0	0	592	
13	0	0	0	0	593	
14	0	0	0	0	593	
15	0	0	0	0	594	
0	0	0	0	0	593	
1	0	0	0	0	593	
2	0	0	0	0	594	
3	0	0	0	0	594	
4	0	0	0	0	593	
5	0	0	0	0	590	
6	0	0	0	0	589	
7	0	0	0	0	591	
8	0	0	0	0	592	
9	0	0	0	0	591	
10	0	0	0	0	588	
11	0	0	0	0	583	
12	0	0	0	0	580	
13	0	0	0	0	579	
14	0	0	0	0	577	
15	0	0	0	0	578	
0	0	0	0	0	579	
1	0	0	0	0	578	
2	0	0	0	0	575	
3	0	0	0	0	573	
4	0	0	0	0	568	
5	0	0	0	0	563	
6	0	0	0	0	562	
7	0	0	0	0	561	
8	0	0	0	0	560	
9	0	0	0	0	554	
10	0	0	0	0	547	
11	0	0	0	0	542	
12	0	0	0	0	538	
13	0	0	0	0	534	
14	0	0	0	0	528	
15	0	0	0	0	526	
0	0	0	0	0	524	
1	0	0	0	0	522	
2	0	0	0	0	516	
3	0	0	0	0	509	
4	0	0	0	0	505	
5	0	0	0	0	499	
6	0	0	0	0	493	
7	0	0	0	0	487	
8	0	0	0	0	475	
9	0	0	0	0	465	
10	0	0	0	0	457	
11	0	0	0	0	450	
12	0	0	0	0	439	
13	0	0	0	0	430	
14	0	0	0	0	425	
15	0	0	0	0	422	
0	0	0	0	0	420	
1	0	0	0	0	420	
2	0	0	0	0	423	
3	0	0	0	0	427	
4	0	0	0	0	436	
5	0	0	0	0	449	
6	0	0	0	0	465	
7	0	0	0	0	484	
8	0	0	0	0	503	
9	0	0	0	0	529	
10	0	0	0	0	556	
11	0	0	0	0	584	
12	0	0	0	0	612	
13	0	0	0	0	642	
14	0	0	0	0	671	
15	0	0	0	0	703	
0	0	0	0	0	738	
1	0	0	0	0	778	
2	0	0	0	0	817	
3	0	0	0	0	852	
4	0	0	0	0	878	
5	0	0	0	0	897	
6	0	0	0	0	911	
7	0	0	0	0	920	
8	0	0	0	0	926	
9	0	0	0	0	927	
10	0	0	0	0	929	
11	0	0	0	0	927	
12	0	0	0	0	926	
13	0	0	0	0	921	
14	0	0	0	0	915	
15	0	0	0	0	908	
0	0	0	0	0	897	
1	0	0	0	0	889	
2	0	0	0	0	880	
3	0	0	0	0	870	
4	0	0	0	0	859	
5	0	0	0	0	844	
6	0	0	0	0	828	
7	0	0	0	0	813	
8	0	0	0	0	800	
9	0	0	0	0	790	
10	0	0	0	0	778	
11	0	0	0	0	765	
12	0	0	0	0	753	
13	0	0	0	0	737	
14	0	0	0	0	719	
15	0	0	0	0	704	
0	0	0	0	0	689	
1	0	0	0	0	677	
2	0	0	0	0	664	
3	0	0	0	0	653	
4	0	0	0	0	645	
5	0	0	0	0	630	
6	0	0	0	0	617	
7	0	0	0	0	605	
8	0	0	0	0	593	
9	0	0	0	0	581	
10	0	0	0	0	569	
11	0	0	0	0	560	
12	0	0	0	0	550	
13	0	0	0	0	541	
14	0	0	0	0	536	
15	0	0	0	0	528	
0	0	0	0	0	518	
1	0	0	0	0	511	
2	0	0	0	0	503	
3	0	0	0	0	497	
4	0	0	0	0	490	
5	0	0	0	0	483	
6	0	0	0	0	476	
7	0	0	0	0	469	
8	0	0	0	0	462	
9	0	0	0	0	456	
10	0	0	0	0	451	
11	0	0	0	0	445	
12	0	0	0	0	440	
13	0	0	0	0	437	
14	0	0	0	0	434	
15	0	0	0	0	430	
0	0	0	0	0	424	
1	0	0	0	0	422	
2	0	0	0	0	419	
3	0	0	0	0	417	
4	0	0	0	0	417	
5	0	0	0	0	417	
6	0	0	0	0	414	
7	0	0	0	0	413	
8	0	0	0	0	413	
9	0	0	0	0	413	
10	0	0	0	0	411	
11	0	0	0	0	409	
12	0	0	0	0	406	
13	0	0	0	0	402	
14	0	0	0	0	401	
15	0	0	0	0	400	
0	0	0	0	0	400	
1	0	0	0	0	399	
2	0	0	0	0	398	
3	0	0	0	0	397	
4	0	0	0	0	396	
5	0	0	0	0	395	
6	0	0	0	0	392	
7	0	0	0	0	393	
8	0	0	0	0	393	
9	0	0	0	0	393	
10	0	0	0	0	390	
11	0	0	0	0	390	
12	0	0	0	0	391	
13	0	0	0	0	388	
14	0	0	0	0	386	
15	0	0	0	0	385	
0	0	0	0	0	382	
1	0	0	0	0	379	
2	0	0	0	0	377	
3	0	0	0	0	378	
4	0	0	0	0	378	
5	0	0	0	0	376	
6	0	0	0	0	376	
7	0	0	0	0	377	
8	0	0	0	0	376	
9	0	0	0	0	374	
10	0	0	0	0	369	
11	0	0	0	0	365	
12	0	0	0	0	362	
13	0	0	0	0	359	
14	0	0	0	0	357	
15	0	0	0	0	355	
0	0	0	0	0	354	
1	0	0	0	0	353	
2	0	0	0	0	351	
3	0	0	0	0	348	
4	0	0	0	0	344	
5	0	0	0	0	342	
6	0	0	0	0	340	
7	0	0	0	0	337	
8	0	0	0	0	334	
9	0	0	0	0	334	
10	0	0	0	0	332	
11	0	0	0	0	330	
12	0	0	0	0	326	
13	0	0	0	0	323	
14	0	0	0	0	318	
15	0	0	0	0	314	
0	0	0	0	0	312	
1	0	0	0	0	309	
2	0	0	0	0	307	
3	0	0	0	0	308	
4	0	0	0	0	308	
5	0	0	0	0	308	
6	0	0	0	0	308	
7	0	0	0	0	308	
8	0	0	0	0	308	
9	0	0	0	0	308	
10	0	0	0	0	307	
11	0	0	0	0	307	
12	0	0	0	0	309	
13	0	0	0	0	308	
14	0	0	0	0	305	
15	0	0	0	0	303	
0	0	0	0	0	300	
1	0	0	0	0	299	
2	0	0	0	0	302	
3	0	0	0	0	305	
4	0	0	0	0	310	
5	0	0	0	0	313	
6	0	0	0	0	315	
7	0	0	0	0	316	
8	0	0	0	0	318	
9	0	0	0	0	321	
10	0	0	0	0	323	
11	0	0	0	0	325	
12	0	0	0	0	328	
13	0	0	0	0	330	
14	0	0	0	0	333	
15	0	0	0	0	337	
0	0	0	0	0	339	
1	0	0	0	0	341	
2	0	0	0	0	344	
3	0	0	0	0	348	
4	0	0	0	0	353	
5	0	0	0	0	357	
6	0	0	0	0	359	
7	0	0	0	0	364	
8	0	0	0	0	373	
9	0	0	0	0	380	
10	0	0	0	0	387	
11	0	0	0	0	393	
12	0	0	0	0	397	
13	0	0	0	0	402	
14	0	0	0	0	408	
15	0	0	0	0	414	
0	0	0	0	0	419	
1	0	0	0	0	424	
2	0	0	0	0	430	
3	0	0	0	0	433	
4	0	0	0	0	438	
5	0	0	0	0	441	
6	0	0	0	0	445	
7	0	0	0	0	451	
8	0	0	0	0	452	
9	0	0	0	0	454	
10	0	0	0	0	457	
11	0	0	0	0	463	
12	0	0	0	0	469	
13	0	0	0	0	479	
14	0	0	0	0	485	
15	0	0	0	0	489	
0	0	0	0	0	494	
1	0	0	0	0	496	
2	0	0	0	0	497	
3	0	0	0	0	498	
4	0	0	0	0	500	
5	0	0	0	0	504	
6	0	0	0	0	508	
7	0	0	0	0	510	
8	0	0	0	0	511	
9	0	0	0	0	515	
10	0	0	0	0	520	
11	0	0	0	0	526	
12	0	0	0	0	527	
13	0	0	0	0	530	
14	0	0	0	0	534	
15	0	0	0	0	538	
0	0	0	0	0	540	
1	0	0	0	0	540	
2	0	0	0	0	541	
3	0	0	0	0	542	
4	0	0	0	0	543	
5	0	0	0	0	546	
6	0	0	0	0	547	
7	0	0	0	0	550	
8	0	0	0	0	553	
9	0	0	0	0	558	
10	0	0	0	0	561	
11	0	0	0	0	563	
12	0	0	0	0	566	
13	0	0	0	0	568	
14	0	0	0	0	568	
15	0	0	0	0	567	
0	0	0	0	0	567	
1	0	0	0	0	569	
2	0	0	0	0	569	
3	0	0	0	0	569	
4	0	0	0	0	568	
5	0	0	0	0	567	
6	0	0	0	0	568	
7	0	0	0	0	572	
8	0	0	0	0	575	
9	0	0	0	0	576	
10	0	0	0	0	577	
11	0	0	0	0	577	
12	0	0	0	0	577	
13	0	0	0	0	576	
14	0	0	0	0	577	
15	0	0	0	0	576	
0	0	0	0	0	575	
1	0	0	0	0	575	
2	0	0	0	0	575	
3	0	0	0	0	574	
4	0	0	0	0	577	
5	0	0	0	0	578	
6	0	0	0	0	579	
7	0	0	0	0	582	
8	0	0	0	0	582	
9	0	0	0	0	583	
10	0	0	0	0	584	
11	0	0	0	0	585	
12	0	0	0	0	585	
13	0	0	0	0	586	
14	0	0	0	0	587	
15	0	0	0	0	589	
0	0	0	0	0	590	
1	0	0	0	0	590	
2	0	0	0	0	590	
3	0	0	0	0	588	
4	0	0	0	0	586	
5	0	0	0	0	583	
6	0	0	0	0	580	
7	0	0	0	0	582	
8	0	0	0	0	581	
9	0	0	0	0	579	
10	0	0	0	0	575	
11	0	0	0	0	573	
12	0	0	0	0	571	
13	0	0	0	0	572	
14	0	0	0	0	574	
15	0	0	0	0	575	
0	0	0	0	0	579	
1	0	0	0	0	582	
2	0	0	0	0	580	
3	0	0	0	0	581	
4	0	0	0	0	582	
5	0	0	0	0	581	
6	0	0	0	0	580	
7	0	0	0	0	578	
8	0	0	0	0	578	
9	0	0	0	0	579	
10	0	0	0	0	580	
11	0	0	0	0	583	
12	0	0	0	0	586	
13	0	0	0	0	587	
14	0	0	0	0	587	
15	0	0	0	0	587	
0	0	0	0	0	589	
1	0	0	0	0	591	
2	0	0	0	0	593	
3	0	0	0	0	593	
4	0	0	0	0	599	
5	0	0	0	0	600	
6	0	0	0	0	597	
7	0	0	0	0	595	
8	0	0	0	0	596	
9	0	0	0	0	595	
10	0	0	0	0	595	
11	0	0	0	0	595	
12	0	0	0	0	594	
13	0	0	0	0	595	
14	0	0	0	0	594	
15	0	0	0	0	591	
0	0	0	0	0	590	
1	0	0	0	0	591	
2	0	0	0	0	591	
3	0	0	0	0	587	
4	0	0	0	0	584	
5	0	0	0	0	585	
6	0	0	0	0	589	
7	0	0	0	0	587	
8	0	0	0	0	583	
9	0	0	0	0	580	
10	0	0	0	0	577	
11	0	0	0	0	575	
12	0	0	0	0	577	
13	0	0	0	0	576	
14	0	0	0	0	577	
15	0	0	0	0	579	
0	0	0	0	0	579	
1	0	0	0	0	576	
2	0	0	0	0	576	
3	0	0	0	0	575	
4	0	0	0	0	572	
5	0	0	0	0	568	
6	0	0	0	0	566	
7	0	0	0	0	563	
8	0	0	0	0	558	
9	0	0	0	0	553	
10	0	0	0	0	549	
11	0	0	0	0	546	
12	0	0	0	0	543	
13	0	0	0	0	542	
14	0	0	0	0	538	
15	0	0	0	0	534	
0	0	0	0	0	534	
1	0	0	0	0	532	
2	0	0	0	0	530	
3	0	0	0	0	526	
4	0	0	0	0	519	
5	0	0	0	0	513	
6	0	0	0	0	508	
7	0	0	0	0	503	
8	0	0	0	0	496	
9	0	0	0	0	491	
10	0	0	0	0	484	
11	0	0	0	0	476	
12	0	0	0	0	470	
13	0	0	0	0	465	
14	0	0	0	0	461	
15	0	0	0	0	455	
0	0	0	0	0	449	
1	0	0	0	0	445	
2	0	0	0	0	445	
3	0	0	0	0	450	
4	0	0	0	0	458	
5	0	0	0	0	468	
6	0	0	0	0	480	
7	0	0	0	0	491	
8	0	0	0	0	504	
9	0	0	0	0	521	
10	0	0	0	0	542	
11	0	0	0	0	565	
12	0	0	0	0	589	
13	0	0	0	0	614	
14	0	0	0	0	640	
15	0	0	0	0	667	
0	0	0	0	0	694	
1	0	0	0	0	723	
2	0	0	0	0	753	
3	0	0	0	0	783	
4	0	0	0	0	808	
5	0	0	0	0	828	
6	0	0	0	0	841	
7	0	0	0	0	850	
8	0	0	0	0	856	
9	0	0	0	0	862	
10	0	0	0	0	865	
11	0	0	0	0	866	
12	0	0	0	0	865	
13	0	0	0	0	863	
14	0	0	0	0	859	
15	0	0	0	0	853	
0	0	0	0	0	847	
1	0	0	0	0	841	
2	0	0	0	0	834	
3	0	0	0	0	826	
4	0	0	0	0	817	
5	0	0	0	0	807	
6	0	0	0	0	795	
7	0	0	0	0	784	
8	0	0	0	0	772	
9	0	0	0	0	758	
10	0	0	0	0	745	
11	0	0	0	0	733	
12	0	0	0	0	721	
13	0	0	0	0	710	
14	0	0	0	0	699	
15	0	0	0	0	688	
0	0	0	0	0	679	
1	0	0	0	0	671	
2	0	0	0	0	664	
3	0	0	0	0	655	
4	0	0	0	0	647	
5	0	0	0	0	639	
6	0	0	0	0	630	
7	0	0	0	0	621	
8	0	0	0	0	612	
9	0	0	0	0	603	
10	0	0	0	0	595	
11	0	0	0	0	584	
12	0	0	0	0	574	
13	0	0	0	0	565	
14	0	0	0	0	558	
15	0	0	0	0	552	
0	0	0	0	0	545	
1	0	0	0	0	537	
2	0	0	0	0	528	
3	0	0	0	0	520	
4	0	0	0	0	511	
5	0	0	0	0	502	
6	0	0	0	0	495	
7	0	0	0	0	488	
8	0	0	0	0	480	
9	0	0	0	0	472	
10	0	0	0	0	466	
11	0	0	0	0	460	
12	0	0	0	0	454	
13	0	0	0	0	447	
14	0	0	0	0	442	
15	0	0	0	0	436	
0	0	0	0	0	430	
1	0	0	0	0	424	
2	0	0	0	0	419	
3	0	0	0	0	415	
4	0	0	0	0	412	
5	0	0	0	0	410	
6	0	0	0	0	408	
7	0	0	0	0	407	
8	0	0	0	0	405	
9	0	0	0	0	404	
10	0	0	0	0	401	
11	0	0	0	0	399	
12	0	0	0	0	398	
13	0	0	0	0	397	
14	0	0	0	0	397	
15	0	0	0	0	396	
0	0	0	0	0	395	
1	0	0	0	0	395	
2	0	0	0	0	395	
3	0	0	0	0	394	
4	0	0	0	0	392	
5	0	0	0	0	391	
6	0	0	0	0	391	
7	0	0	0	0	390	
8	0	0	0	0	388	
9	0	0	0	0	386	
10	0	0	0	0	384	
11	0	0	0	0	381	
12	0	0	0	0	379	
13	0	0	0	0	376	
14	0	0	0	0	376	
15	0	0	0	0	376	
0	0	0	0	0	376	
1	0	0	0	0	375	
2	0	0	0	0	375	
3	0	0	0	0	375	
4	0	0	0	0	376	
5	0	0	0	0	375	
6	0	0	0	0	374	
7	0	0	0	0	374	
8	0	0	0	0	373	
9	0	0	0	0	371	
10	0	0	0	0	370	
11	0	0	0	0	368	
12	0	0	0	0	367	
13	0	0	0	0	366	
14	0	0	0	0	362	
15	0	0	0	0	359	
0	0	0	0	0	355	
1	0	0	0	0	353	
2	0	0	0	0	352	
3	0	0	0	0	350	
4	0	0	0	0	348	
5	0	0	0	0	347	
6	0	0	0	0	346	
7	0	0	0	0	344	
8	0	0	0	0	342	
9	0	0	0	0	338	
10	0	0	0	0	335	
11	0	0	0	0	333	
12	0	0	0	0	330	
13	0	0	0	0	327	
14	0	0	0	0	324	
15	0	0	0	0	322	
0	0	0	0	0	318	
1	0	0	0	0	312	
2	0	0	0	0	310	
3	0	0	0	0	310	
4	0	0	0	0	308	
5	0	0	0	0	306	
6	0	0	0	0	304	
7	0	0	0	0	303	
8	0	0	0	0	304	
9	0	0	0	0	304	
10	0	0	0	0	303	
11	0	0	0	0	302	
12	0	0	0	0	301	
13	0	0	0	0	300	
14	0	0	0	0	300	
15	0	0	0	0	301	
0	0	0	0	0	300	
1	0	0	0	0	300	
2	0	0	0	0	299	
3	0	0	0	0	300	
4	0	0	0	0	302	
5	0	0	0	0	303	
6	0	0	0	0	305	
7	0	0	0	0	307	
8	0	0	0	0	309	
9	0	0	0	0	310	
10	0	0	0	0	310	
11	0	0	0	0	311	
12	0	0	0	0	314	
13	0	0	0	0	318	
14	0	0	0	0	320	
15	0	0	0	0	322	
0	0	0	0	0	324	
1	0	0	0	0	326	
2	0	0	0	0	330	
3	0	0	0	0	332	
4	0	0	0	0	334	
5	0	0	0	0	337	
6	0	0	0	0	340	
7	0	0	0	0	343	
8	0	0	0	0	348	
9	0	0	0	0	353	
10	0	0	0	0	358	
11	0	0	0	0	363	
12	0	0	0	0	368	
13	0	0	0	0	371	
14	0	0	0	0	375	
15	0	0	0	0	379	
0	0	0	0	0	383	
1	0	0	0	0	388	
2	0	0	0	0	395	
3	0	0	0	0	401	
4	0	0	0	0	407	
5	0	0	0	0	413	
6	0	0	0	0	419	
7	0	0	0	0	423	
8	0	0	0	0	427	
9	0	0	0	0	434	
10	0	0	0	0	439	
11	0	0	0	0	445	
12	0	0	0	0	449	
13	0	0	0	0	451	
14	0	0	0	0	452	
15	0	0	0	0	453	
0	0	0	0	0	457	
1	0	0	0	0	462	
2	0	0	0	0	465	
3	0	0	0	0	469	
4	0	0	0	0	472	
5	0	0	0	0	475	
6	0	0	0	0	479	
7	0	0	0	0	483	
8	0	0	0	0	487	
9	0	0	0	0	491	
10	0	0	0	0	495	
11	0	0	0	0	499	
12	0	0	0	0	500	
13	0	0	0	0	503	
14	0	0	0	0	506	
15	0	0	0	0	509	
0	0	0	0	0	511	
1	0	0	0	0	511	
2	0	0	0	0	512	
3	0	0	0	0	513	
4	0	0	0	0	515	
5	0	0	0	0	518	
6	0	0	0	0	522	
7	0	0	0	0	526	
8	0	0	0	0	529	
9	0	0	0	0	531	
10	0	0	0	0	532	
11	0	0	0	0	534	
12	0	0	0	0	535	
13	0	0	0	0	534	
14	0	0	0	0	532	
15	0	0	0	0	531	
0	0	0	0	0	530	
1	0	0	0	0	531	
2	0	0	0	0	531	
3	0	0	0	0	532	
4	0	0	0	0	531	
5	0	0	0	0	531	
6	0	0	0	0	531	
7	0	0	0	0	532	
8	0	0	0	0	534	
9	0	0	0	0	534	
10	0	0	0	0	536	
11	0	0	0	0	537	
12	0	0	0	0	538	
13	0	0	0	0	540	
14	0	0	0	0	541	
15	0	0	0	0	542	
0	0	0	0	0	544	
1	0	0	0	0	543	
2	0	0	0	0	542	
3	0	0	0	0	545	
4	0	0	0	0	547	
5	0	0	0	0	547	
6	0	0	0	0	547	
7	0	0	0	0	547	
8	0	0	0	0	547	
9	0	0	0	0	550	
10	0	0	0	0	553	
11	0	0	0	0	552	
12	0	0	0	0	552	
13	0	0	0	0	550	
14	0	0	0	0	547	
15	0	0	0	0	546	
0	0	0	0	0	544	
1	0	0	0	0	542	
2	0	0	0	0	540	
3	0	0	0	0	542	
4	0	0	0	0	542	
5	0	0	0	0	539	
6	0	0	0	0	540	
7	0	0	0	0	541	
8	0	0	0	0	540	
9	0	0	0	0	541	
10	0	0	0	0	543	
11	0	0	0	0	546	
12	0	0	0	0	548	
13	0	0	0	0	548	
14	0	0	0	0	547	
15	0	0	0	0	549	
0	0	0	0	0	550	
1	0	0	0	0	553	
2	0	0	0	0	554	
3	0	0	0	0	556	
4	0	0	0	0	557	
5	0	0	0	0	559	
6	0	0	0	0	560	
7	0	0	0	0	563	
8	0	0	0	0	563	
9	0	0	0	0	567	
10	0	0	0	0	571	
11	0	0	0	0	573	
12	0	0	0	0	573	
13	0	0	0	0	572	
14	0	0	0	0	572	
15	0	0	0	0	575	
0	0	0	0	0	576	
1	0	0	0	0	576	
2	0	0	0	0	575	
3	0	0	0	0	571	
4	0	0	0	0	569	
5	0	0	0	0	568	
6	0	0	0	0	568	
7	0	0	0	0	568	
8	0	0	0	0	569	
9	0	0	0	0	569	
10	0	0	0	0	570	
11	0	0	0	0	570	
12	0	0	0	0	569	
13	0	0	0	0	569	
14	0	0	0	0	569	
15	0	0	0	0	570	
0	0	0	0	0	570	
1	0	0	0	0	569	
2	0	0	0	0	568	
3	0	0	0	0	567	
4	0	0	0	0	565	
5	0	0	0	0	562	
6	0	0	0	0	562	
7	0	0	0	0	561	
8	0	0	0	0	561	
9	0	0	0	0	560	
10	0	0	0	0	558	
11	0	0	0	0	555	
12	0	0	0	0	552	
13	0	0	0	0	550	
14	0	0	0	0	548	
15	0	0	0	0	548	
0	0	0	0	0	546	
1	0	0	0	0	542	
2	0	0	0	0	540	
3	0	0	0	0	536	
4	0	0	0	0	532	
5	0	0	0	0	526	
6	0	0	0	0	519	
7	0	0	0	0	517	
8	0	0	0	0	514	
9	0	0	0	0	510	
10	0	0	0	0	509	
11	0	0	0	0	508	
12	0	0	0	0	509	
13	0	0	0	0	505	
14	0	0	0	0	503	
15	0	0	0	0	499	
0	0	0	0	0	495	
1	0	0	0	0	490	
2	0	0	0	0	486	
3	0	0	0	0	483	
4	0	0	0	0	478	
5	0	0	0	0	471	
6	0	0	0	0	465	
7	0	0	0	0	460	
8	0	0	0	0	454	
9	0	0	0	0	451	
10	0	0	0	0	449	
11	0	0	0	0	447	
12	0	0	0	0	445	
13	0	0	0	0	446	
14	0	0	0	0	450	
15	0	0	0	0	458	
0	0	0	0	0	468	
1	0	0	0	0	478	
2	0	0	0	0	489	
3	0	0	0	0	502	
4	0	0	0	0	519	
5	0	0	0	0	538	
6	0	0	0	0	558	
7	0	0	0	0	579	
8	0	0	0	0	605	
9	0	0	0	0	632	
10	0	0	0	0	660	
11	0	0	0	0	689	
12	0	0	0	0	722	
13	0	0	0	0	758	
14	0	0	0	0	789	
15	0	0	0	0	818	
0	0	0	0	0	842	
1	0	0	0	0	863	
2	0	0	0	0	877	
3	0	0	0	0	885	
4	0	0	0	0	890	
5	0	0	0	0	892	
6	0	0	0	0	888	
7	0	0	0	0	884	
8	0	0	0	0	880	
9	0	0	0	0	878	
10	0	0	0	0	872	
11	0	0	0	0	865	
12	0	0	0	0	856	
13	0	0	0	0	845	
14	0	0	0	0	835	
15	0	0	0	0	822	
0	0	0	0	0	810	
1	0	0	0	0	797	
2	0	0	0	0	783	
3	0	0	0	0	769	
4	0	0	0	0	755	
5	0	0	0	0	744	
6	0	0	0	0	734	
7	0	0	0	0	721	
8	0	0	0	0	711	
9	0	0	0	0	700	
10	0	0	0	0	691	
11	0	0	0	0	680	
12	0	0	0	0	668	
13	0	0	0	0	656	
14	0	0	0	0	644	
15	0	0	0	0	630	
0	0	0	0	0	619	
1	0	0	0	0	608	
2	0	0	0	0	599	
3	0	0	0	0	588	
4	0	0	0	0	577	
5	0	0	0	0	568	
6	0	0	0	0	558	
7	0	0	0	0	547	
8	0	0	0	0	536	
9	0	0	0	0	526	
10	0	0	0	0	516	
11	0	0	0	0	505	
12	0	0	0	0	497	
13	0	0	0	0	489	
14	0	0	0	0	483	
15	0	0	0	0	476	
0	0	0	0	0	467	
1	0	0	0	0	463	
2	0	0	0	0	458	
3	0	0	0	0	450	
4	0	0	0	0	445	
5	0	0	0	0	439	
6	0	0	0	0	435	
7	0	0	0	0	432	
8	0	0	0	0	424	
9	0	0	0	0	419	
10	0	0	0	0	415	
11	0	0	0	0	412	
12	0	0	0	0	409	
13	0	0	0	0	406	
14	0	0	0	0	401	
15	0	0	0	0	398	
0	0	0	0	0	396	
1	0	0	0	0	398	
2	0	0	0	0	399	
3	0	0	0	0	398	
4	0	0	0	0	398	
5	0	0	0	0	395	
6	0	0	0	0	394	
7	0	0	0	0	395	
8	0	0	0	0	392	
9	0	0	0	0	389	
10	0	0	0	0	386	
11	0	0	0	0	385	
12	0	0	0	0	385	
13	0	0	0	0	384	
14	0	0	0	0	383	
15	0	0	0	0	380	
0	0	0	0	0	378	
1	0	0	0	0	381	
2	0	0	0	0	383	
3	0	0	0	0	385	
4	0	0	0	0	386	
5	0	0	0	0	387	
6	0	0	0	0	384	
7	0	0	0	0	381	
8	0	0	0	0	379	
9	0	0	0	0	377	
10	0	0	0	0	376	
11	0	0	0	0	376	
12	0	0	0	0	375	
13	0	0	0	0	373	
14	0	0	0	0	370	
15	0	0	0	0	367	
0	0	0	0	0	364	
1	0	0	0	0	363	
2	0	0	0	0	364	
3	0	0	0	0	366	
4	0	0	0	0	364	
5	0	0	0	0	363	
6	0	0	0	0	362	
7	0	0	0	0	359	
8	0	0	0	0	356	
9	0	0	0	0	354	
10	0	0	0	0	352	
11	0	0	0	0	351	
12	0	0	0	0	346	
13	0	0	0	0	345	
14	0	0	0	0	342	
15	0	0	0	0	337	
0	0	0	0	0	335	
1	0	0	0	0	331	
2	0	0	0	0	328	
3	0	0	0	0	325	
4	0	0	0	0	324	
5	0	0	0	0	322	
6	0	0	0	0	317	
7	0	0	0	0	315	
8	0	0	0	0	312	
9	0	0	0	0	312	
10	0	0	0	0	309	
11	0	0	0	0	304	
12	0	0	0	0	302	
13	0	0	0	0	299	
14	0	0	0	0	295	
15	0	0	0	0	293	
0	0	0	0	0	291	
1	0	0	0	0	291	
2	0	0	0	0	290	
3	0	0	0	0	290	
4	0	0	0	0	290	
5	0	0	0	0	290	
6	0	0	0	0	289	
7	0	0	0	0	287	
8	0	0	0	0	285	
9	0	0	0	0	284	
10	0	0	0	0	285	
11	0	0	0	0	287	
12	0	0	0	0	287	
13	0	0	0	0	287	
14	0	0	0	0	286	
15	0	0	0	0	286	
0	0	0	0	0	291	
1	0	0	0	0	294	
2	0	0	0	0	296	
3	0	0	0	0	297	
4	0	0	0	0	299	
5	0	0	0	0	301	
6	0	0	0	0	303	
7	0	0	0	0	307	
8	0	0	0	0	311	
9	0	0	0	0	313	
10	0	0	0	0	318	
11	0	0	0	0	320	
12	0	0	0	0	324	
13	0	0	0	0	327	
14	0	0	0	0	333	
15	0	0	0	0	340	
0	0	0	0	0	345	
1	0	0	0	0	347	
2	0	0	0	0	349	
3	0	0	0	0	352	
4	0	0	0	0	356	
5	0	0	0	0	363	
6	0	0	0	0	370	
7	0	0	0	0	374	
8	0	0	0	0	379	
9	0	0	0	0	384	
10	0	0	0	0	391	
11	0	0	0	0	398	
12	0	0	0	0	404	
13	0	0	0	0	411	
14	0	0	0	0	416	
15	0	0	0	0	420	
0	0	0	0	0	423	
1	0	0	0	0	427	
2	0	0	0	0	432	
3	0	0	0	0	438	
4	0	0	0	0	444	
5	0	0	0	0	446	
6	0	0	0	0	449	
7	0	0	0	0	456	
8	0	0	0	0	460	
9	0	0	0	0	462	
10	0	0	0	0	467	
11	0	0	0	0	473	
12	0	0	0	0	477	
13	0	0	0	0	481	
14	0	0	0	0	486	
15	0	0	0	0	489	
0	0	0	0	0	490	
1	0	0	0	0	493	
2	0	0	0	0	495	
3	0	0	0	0	497	
4	0	0	0	0	503	
5	0	0	0	0	509	
6	0	0	0	0	516	
7	0	0	0	0	521	
8	0	0	0	0	524	
9	0	0	0	0	529	
10	0	0	0	0	531	
11	0	0	0	0	531	
12	0	0	0	0	533	
13	0	0	0	0	538	
14	0	0	0	0	543	
15	0	0	0	0	545	
0	0	0	0	0	550	
1	0	0	0	0	552	
2	0	0	0	0	551	
3	0	0	0	0	552	
4	0	0	0	0	556	
5	0	0	0	0	558	
6	0	0	0	0	560	
7	0	0	0	0	559	
8	0	0	0	0	559	
9	0	0	0	0	556	
10	0	0	0	0	555	
11	0	0	0	0	557	
12	0	0	0	0	559	
13	0	0	0	0	560	
14	0	0	0	0	561	
15	0	0	0	0	559	
0	0	0	0	0	558	
1	0	0	0	0	558	
2	0	0	0	0	557	
3	0	0	0	0	556	
4	0	0	0	0	555	
5	0	0	0	0	556	
6	0	0	0	0	558	
7	0	0	0	0	561	
8	0	0	0	0	564	
9	0	0	0	0	567	
10	0	0	0	0	570	
11	0	0	0	0	573	
12	0	0	0	0	574	
13	0	0	0	0	573	
14	0	0	0	0	574	
15	0	0	0	0	576	
0	0	0	0	0	577	
1	0	0	0	0	577	
2	0	0	0	0	575	
3	0	0	0	0	575	
4	0	0	0	0	577	
5	0	0	0	0	578	
6	0	0	0	0	578	
7	0	0	0	0	576	
8	0	0	0	0	575	
9	0	0	0	0	576	
10	0	0	0	0	576	
11	0	0	0	0	577	
12	0	0	0	0	573	
13	0	0	0	0	571	
14	0	0	0	0	569	
15	0	0	0	0	567	
0	0	0	0	0	563	
1	0	0	0	0	561	
2	0	0	0	0	559	
3	0	0	0	0	559	
4	0	0	0	0	560	
5	0	0	0	0	560	
6	0	0	0	0	564	
7	0	0	0	0	565	
8	0	0	0	0	566	
9	0	0	0	0	568	
10	0	0	0	0	571	
11	0	0	0	0	572	
12	0	0	0	0	574	
13	0	0	0	0	577	
14	0	0	0	0	581	
15	0	0	0	0	583	
0	0	0	0	0	583	
1	0	0	0	0	585	
2	0	0	0	0	589	
3	0	0	0	0	589	
4	0	0	0	0	589	
5	0	0	0	0	589	
6	0	0	0	0	590	
7	0	0	0	0	591	
8	0	0	0	0	591	
9	0	0	0	0	592	
10	0	0	0	0	593	
11	0	0	0	0	594	
12	0	0	0	0	595	
13	0	0	0	0	596	
14	0	0	0	0	598	
15	0	0	0	0	599	
0	0	0	0	0	598	
1	0	0	0	0	597	
2	0	0	0	0	598	
3	0	0	0	0	595	
4	0	0	0	0	593	
5	0	0	0	0	592	
6	0	0	0	0	593	
7	0	0	0	0	593	
8	0	0	0	0	591	
9	0	0	0	0	591	
10	0	0	0	0	590	
11	0	0	0	0	590	
12	0	0	0	0	591	
13	0	0	0	0	591	
14	0	0	0	0	589	
15	0	0	0	0	587	
0	0	0	0	0	588	
1	0	0	0	0	586	
2	0	0	0	0	585	
3	0	0	0	0	584	
4	0	0	0	0	582	
5	0	0	0	0	580	
6	0	0	0	0	577	
7	0	0	0	0	575	
8	0	0	0	0	572	
9	0	0	0	0	568	
10	0	0	0	0	563	
11	0	0	0	0	559	
12	0	0	0	0	554	
13	0	0	0	0	552	
14	0	0	0	0	549	
15	0	0	0	0	543	
0	0	0	0	0	537	
1	0	0	0	0	534	
2	0	0	0	0	530	
3	0	0	0	0	527	
4	0	0	0	0	522	
5	0	0	0	0	519	
6	0	0	0	0	516	
7	0	0	0	0	512	
8	0	0	0	0	508	
9	0	0	0	0	503	
10	0	0	0	0	498	
11	0	0	0	0	494	
12	0	0	0	0	491	
13	0	0	0	0	487	
14	0	0	0	0	485	
15	0	0	0	0	483	
0	0	0	0	0	479	
1	0	0	0	0	474	
2	0	0	0	0	468	
3	0	0	0	0	463	
4	0	0	0	0	458	
5	0	0	0	0	455	
6	0	0	0	0	452	
7	0	0	0	0	451	
8	0	0	0	0	452	
9	0	0	0	0	457	
10	0	0	0	0	465	
11	0	0	0	0	474	
12	0	0	0	0	486	
13	0	0	0	0	503	
14	0	0	0	0	525	
15	0	0	0	0	550	
0	0	0	0	0	576	
1	0	0	0	0	604	
2	0	0	0	0	632	
3	0	0	0	0	660	
4	0	0	0	0	691	
5	0	0	0	0	723	
6	0	0	0	0	756	
7	0	0	0	0	794	
8	0	0	0	0	829	
9	0	0	0	0	860	
10	0	0	0	0	885	
11	0	0	0	0	905	
12	0	0	0	0	920	
13	0	0	0	0	931	
14	0	0	0	0	938	
15	0	0	0	0	941	
0	0	0	0	0	941	
1	0	0	0	0	939	
2	0	0	0	0	933	
3	0	0	0	0	928	
4	0	0	0	0	920	
5	0	0	0	0	913	
6	0	0	0	0	903	
7	0	0	0	0	889	
8	0	0	0	0	877	
9	0	0	0	0	863	
10	0	0	0	0	848	
11	0	0	0	0	833	
12	0	0	0	0	820	
13	0	0	0	0	806	
14	0	0	0	0	792	
15	0	0	0	0	779	
0	0	0	0	0	765	
1	0	0	0	0	752	
2	0	0	0	0	739	
3	0	0	0	0	726	
4	0	0	0	0	713	
5	0	0	0	0	698	
6	0	0	0	0	684	
7	0	0	0	0	670	
8	0	0	0	0	656	
9	0	0	0	0	643	
10	0	0	0	0	631	
11	0	0	0	0	617	
12	0	0	0	0	604	
13	0	0	0	0	593	
14	0	0	0	0	582	
15	0	0	0	0	571	
0	0	0	0	0	560	
1	0	0	0	0	548	
2	0	0	0	0	536	
3	0	0	0	0	525	
4	0	0	0	0	515	
5	0	0	0	0	505	
6	0	0	0	0	495	
7	0	0	0	0	484	
8	0	0	0	0	475	
9	0	0	0	0	467	
10	0	0	0	0	459	
11	0	0	0	0	452	
12	0	0	0	0	447	
13	0	0	0	0	442	
14	0	0	0	0	438	
15	0	0	0	0	433	
0	0	0	0	0	430	
1	0	0	0	0	426	
2	0	0	0	0	424	
3	0	0	0	0	421	
4	0	0	0	0	418	
5	0	0	0	0	415	
6	0	0	0	0	412	
7	0	0	0	0	410	
8	0	0	0	0	408	
9	0	0	0	0	406	
10	0	0	0	0	403	
11	0	0	0	0	401	
12	0	0	0	0	399	
13	0	0	0	0	395	
14	0	0	0	0	393	
15	0	0	0	0	392	
0	0	0	0	0	390	
1	0	0	0	0	390	
2	0	0	0	0	389	
3	0	0	0	0	389	
4	0	0	0	0	390	
5	0	0	0	0	389	
6	0	0	0	0	387	
7	0	0	0	0	385	
8	0	0	0	0	383	
9	0	0	0	0	379	
10	0	0	0	0	380	
11	0	0	0	0	381	
12	0	0	0	0	380	
13	0	0	0	0	380	
14	0	0	0	0	380	
15	0	0	0	0	381	
0	0	0	0	0	380	
1	0	0	0	0	379	
2	0	0	0	0	380	
3	0	0	0	0	380	
4	0	0	0	0	379	
5	0	0	0	0	375	
6	0	0	0	0	372	
7	0	0	0	0	371	
8	0	0	0	0	368	
9	0	0	0	0	365	
10	0	0	0	0	362	
11	0	0	0	0	360	
12	0	0	0	0	358	
13	0	0	0	0	354	
14	0	0	0	0	352	
15	0	0	0	0	350	
0	0	0	0	0	352	
1	0	0	0	0	353	
2	0	0	0	0	353	
3	0	0	0	0	351	
4	0	0	0	0	348	
5	0	0	0	0	348	
6	0	0	0	0	344	
7	0	0	0	0	340	
8	0	0	0	0	337	
9	0	0	0	0	334	
10	0	0	0	0	330	
11	0	0	0	0	326	
12	0	0	0	0	324	
13	0	0	0	0	323	
14	0	0	0	0	321	
15	0	0	0	0	318	
0	0	0	0	0	312	
1	0	0	0	0	309	
2	0	0	0	0	306	
3	0	0	0	0	305	
4	0	0	0	0	302	
5	0	0	0	0	298	
6	0	0	0	0	296	
7	0	0	0	0	293	
8	0	0	0	0	291	
9	0	0	0	0	290	
10	0	0	0	0	288	
11	0	0	0	0	286	
12	0	0	0	0	285	
13	0	0	0	0	285	
14	0	0	0	0	283	
15	0	0	0	0	281	
0	0	0	0	0	281	
1	0	0	0	0	284	
2	0	0	0	0	286	
3	0	0	0	0	289	
4	0	0	0	0	290	
5	0	0	0	0	289	
6	0	0	0	0	288	
7	0	0	0	0	288	
8	0	0	0	0	289	
9	0	0	0	0	290	
10	0	0	0	0	289	
11	0	0	0	0	291	
12	0	0	0	0	291	
13	0	0	0	0	293	
14	0	0	0	0	294	
15	0	0	0	0	294	
0	0	0	0	0	294	
1	0	0	0	0	297	
2	0	0	0	0	300	
3	0	0	0	0	304	
4	0	0	0	0	310	
5	0	0	0	0	315	
6	0	0	0	0	318	
7	0	0	0	0	321	
8	0	0	0	0	326	
9	0	0	0	0	329	
10	0	0	0	0	332	
11	0	0	0	0	335	
12	0	0	0	0	340	
13	0	0	0	0	344	
14	0	0	0	0	348	
15	0	0	0	0	355	
0	0	0	0	0	363	
1	0	0	0	0	370	
2	0	0	0	0	376	
3	0	0	0	0	382	
4	0	0	0	0	388	
5	0	0	0	0	395	
6	0	0	0	0	399	
7	0	0	0	0	408	
8	0	0	0	0	416	
9	0	0	0	0	421	
10	0	0	0	0	426	
11	0	0	0	0	429	
12	0	0	0	0	433	
13	0	0	0	0	439	
14	0	0	0	0	444	
15	0	0	0	0	449	
0	0	0	0	0	453	
1	0	0	0	0	458	
2	0	0	0	0	462	
3	0	0	0	0	466	
4	0	0	0	0	471	
5	0	0	0	0	476	
6	0	0	0	0	482	
7	0	0	0	0	487	
8	0	0	0	0	492	
9	0	0	0	0	496	
10	0	0	0	0	499	
11	0	0	0	0	504	
12	0	0	0	0	508	
13	0	0	0	0	511	
14	0	0	0	0	514	
15	0	0	0	0	519	
0	0	0	0	0	521	
1	0	0	0	0	524	
2	0	0	0	0	528	
3	0	0	0	0	532	
4	0	0	0	0	536	
5	0	0	0	0	540	
6	0	0	0	0	543	
7	0	0	0	0	545	
8	0	0	0	0	546	
9	0	0	0	0	546	
10	0	0	0	0	551	
11	0	0	0	0	553	
12	0	0	0	0	552	
13	0	0	0	0	552	
14	0	0	0	0	557	
15	0	0	0	0	561	
0	0	0	0	0	564	
1	0	0	0	0	566	
2	0	0	0	0	567	
3	0	0	0	0	569	
4	0	0	0	0	572	
5	0	0	0	0	575	
6	0	0	0	0	578	
7	0	0	0	0	578	
8	0	0	0	0	577	
9	0	0	0	0	576	
10	0	0	0	0	575	
11	0	0	0	0	576	
12	0	0	0	0	577	
13	0	0	0	0	578	
14	0	0	0	0	578	
15	0	0	0	0	578	
0	0	0	0	0	578	
1	0	0	0	0	577	
2	0	0	0	0	577	
3	0	0	0	0	575	
4	0	0	0	0	578	
5	0	0	0	0	583	
6	0	0	0	0	584	
7	0	0	0	0	585	
8	0	0	0	0	584	
9	0	0	0	0	585	
10	0	0	0	0	587	
11	0	0	0	0	588	
12	0	0	0	0	588	
13	0	0	0	0	587	
14	0	0	0	0	587	
15	0	0	0	0	588	
0	0	0	0	0	586	
1	0	0	0	0	589	
2	0	0	0	0	590	
3	0	0	0	0	589	
4	0	0	0	0	589	
5	0	0	0	0	590	
6	0	0	0	0	592	
7	0	0	0	0	591	
8	0	0	0	0	589	
9	0	0	0	0	589	
10	0	0	0	0	591	
11	0	0	0	0	590	
12	0	0	0	0	589	
13	0	0	0	0	589	
14	0	0	0	0	589	
15	0	0	0	0	587	
0	0	0	0	0	584	
1	0	0	0	0	583	
2	0	0	0	0	585	
3	0	0	0	0	587	
4	0	0	0	0	588	
5	0	0	0	0	592	
6	0	0	0	0	594	
7	0	0	0	0	594	
8	0	0	0	0	595	
9	0	0	0	0	597	
10	0	0	0	0	599	
11	0	0	0	0	600	
12	0	0	0	0	603	
13	0	0	0	0	604	
14	0	0	0	0	605	
15	0	0	0	0	607	
0	0	0	0	0	608	
1	0	0	0	0	608	
2	0	0	0	0	608	
3	0	0	0	0	605	
4	0	0	0	0	604	
5	0	0	0	0	606	
6	0	0	0	0	609	
7	0	0	0	0	609	
8	0	0	0	0	610	
9	0	0	0	0	611	
10	0	0	0	0	614	
11	0	0	0	0	615	
12	0	0	0	0	613	
13	0	0	0	0	611	
14	0	0	0	0	608	
15	0	0	0	0	605	
0	0	0	0	0	602	
1	0	0	0	0	601	
2	0	0	0	0	601	
3	0	0	0	0	600	
4	0	0	0	0	596	
5	0	0	0	0	595	
6	0	0	0	0	597	
7	0	0	0	0	600	
8	0	0	0	0	602	
9	0	0	0	0	600	
10	0	0	0	0	603	
11	0	0	0	0	605	
12	0	0	0	0	603	
13	0	0	0	0	600	
14	0	0	0	0	598	
15	0	0	0	0	594	
0	0	0	0	0	591	
1	0	0	0	0	591	
2	0	0	0	0	590	
3	0	0	0	0	588	
4	0	0	0	0	587	
5	0	0	0	0	587	
6	0	0	0	0	585	
7	0	0	0	0	583	
8	0	0	0	0	582	
9	0	0	0	0	579	
10	0	0	0	0	576	
11	0	0	0	0	574	
12	0	0	0	0	571	
13	0	0	0	0	568	
14	0	0	0	0	563	
15	0	0	0	0	556	
0	0	0	0	0	551	
1	0	0	0	0	550	
2	0	0	0	0	548	
3	0	0	0	0	546	
4	0	0	0	0	543	
5	0	0	0	0	538	
6	0	0	0	0	534	
7	0	0	0	0	528	
8	0	0	0	0	520	
9	0	0	0	0	515	
10	0	0	0	0	512	
11	0	0	0	0	509	
12	0	0	0	0	503	
13	0	0	0	0	497	
14	0	0	0	0	489	
15	0	0	0	0	480	
0	0	0	0	0	473	
1	0	0	0	0	462	
2	0	0	0	0	451	
3	0	0	0	0	443	
4	0	0	0	0	440	
5	0	0	0	0	440	
6	0	0	0	0	446	
7	0	0	0	0	451	
8	0	0	0	0	460	
9	0	0	0	0	472	
10	0	0	0	0	484	
11	0	0	0	0	500	
12	0	0	0	0	519	
13	0	0	0	0	542	
14	0	0	0	0	567	
15	0	0	0	0	591	
0	0	0	0	0	617	
1	0	0	0	0	648	
2	0	0	0	0	681	
3	0	0	0	0	713	
4	0	0	0	0	746	
5	0	0	0	0	782	
6	0	0	0	0	815	
7	0	0	0	0	844	
8	0	0	0	0	869	
9	0	0	0	0	887	
10	0	0	0	0	900	
11	0	0	0	0	909	
12	0	0	0	0	913	
13	0	0	0	0	914	
14	0	0	0	0	913	
15	0	0	0	0	910	
0	0	0	0	0	904	
1	0	0	0	0	896	
2	0	0	0	0	888	
3	0	0	0	0	880	
4	0	0	0	0	874	
5	0	0	0	0	869	
6	0	0	0	0	866	
7	0	0	0	0	857	
8	0	0	0	0	845	
9	0	0	0	0	832	
10	0	0	0	0	822	
11	0	0	0	0	809	
12	0	0	0	0	792	
13	0	0	0	0	780	
14	0	0	0	0	767	
15	0	0	0	0	752	
0	0	0	0	0	740	
1	0	0	0	0	729	
2	0	0	0	0	718	
3	0	0	0	0	707	
4	0	0	0	0	698	
5	0	0	0	0	687	
6	0	0	0	0	675	
7	0	0	0	0	663	
8	0	0	0	0	654	
9	0	0	0	0	645	
10	0	0	0	0	635	
11	0	0	0	0	623	
12	0	0	0	0	612	
13	0	0	0	0	601	
14	0	0	0	0	596	
15	0	0	0	0	589	
0	0	0	0	0	579	
1	0	0	0	0	570	
2	0	0	0	0	561	
3	0	0	0	0	552	
4	0	0	0	0	541	
5	0	0	0	0	531	
6	0	0	0	0	524	
7	0	0	0	0	515	
8	0	0	0	0	507	
9	0	0	0	0	496	
10	0	0	0	0	487	
11	0	0	0	0	480	
12	0	0	0	0	475	
13	0	0	0	0	472	
14	0	0	0	0	468	
15	0	0	0	0	465	
0	0	0	0	0	461	
1	0	0	0	0	455	
2	0	0	0	0	449	
3	0	0	0	0	445	
4	0	0	0	0	440	
5	0	0	0	0	436	
6	0	0	0	0	432	
7	0	0	0	0	429	
8	0	0	0	0	425	
9	0	0	0	0	423	
10	0	0	0	0	419	
11	0	0	0	0	415	
12	0	0	0	0	412	
13	0	0	0	0	412	
14	0	0	0	0	413	
15	0	0	0	0	413	
0	0	0	0	0	409	
1	0	0	0	0	406	
2	0	0	0	0	406	
3	0	0	0	0	405	
4	0	0	0	0	401	
5	0	0	0	0	400	
6	0	0	0	0	398	
7	0	0	0	0	394	
8	0	0	0	0	395	
9	0	0	0	0	397	
10	0	0	0	0	396	
11	0	0	0	0	395	
12	0	0	0	0	395	
13	0	0	0	0	395	
14	0	0	0	0	394	
15	0	0	0	0	393	
0	0	0	0	0	392	
1	0	0	0	0	391	
2	0	0	0	0	390	
3	0	0	0	0	389	
4	0	0	0	0	387	
5	0	0	0	0	387	
6	0	0	0	0	387	
7	0	0	0	0	385	
8	0	0	0	0	384	
9	0	0	0	0	383	
10	0	0	0	0	381	
11	0	0	0	0	379	
12	0	0	0	0	376	
13	0	0	0	0	374	
14	0	0	0	0	373	
15	0	0	0	0	372	
0	0	0	0	0	371	
1	0	0	0	0	370	
2	0	0	0	0	369	
3	0	0	0	0	366	
4	0	0	0	0	361	
5	0	0	0	0	358	
6	0	0	0	0	355	
7	0	0	0	0	351	
8	0	0	0	0	349	
9	0	0	0	0	345	
10	0	0	0	0	343	
11	0	0	0	0	339	
12	0	0	0	0	334	
13	0	0	0	0	332	
14	0	0	0	0	333	
15	0	0	0	0	332	
0	0	0	0	0	328	
1	0	0	0	0	326	
2	0	0	0	0	323	
3	0	0	0	0	322	
4	0	0	0	0	319	
5	0	0	0	0	316	
6	0	0	0	0	316	
7	0	0	0	0	316	
8	0	0	0	0	315	
9	0	0	0	0	314	
10	0	0	0	0	311	
11	0	0	0	0	308	
12	0	0	0	0	307	
13	0	0	0	0	304	
14	0	0	0	0	301	
15	0	0	0	0	301	
0	0	0	0	0	302	
1	0	0	0	0	303	
2	0	0	0	0	306	
3	0	0	0	0	309	
4	0	0	0	0	311	
5	0	0	0	0	310	
6	0	0	0	0	309	
7	0	0	0	0	308	
8	0	0	0	0	309	
9	0	0	0	0	311	
10	0	0	0	0	313	
11	0	0	0	0	314	
12	0	0	0	0	316	
13	0	0	0	0	318	
14	0	0	0	0	321	
15	0	0	0	0	325	
0	0	0	0	0	327	
1	0	0	0	0	331	
2	0	0	0	0	335	
3	0	0	0	0	338	
4	0	0	0	0	340	
5	0	0	0	0	343	
6	0	0	0	0	346	
7	0	0	0	0	349	
8	0	0	0	0	352	
9	0	0	0	0	357	
10	0	0	0	0	364	
11	0	0	0	0	369	
12	0	0	0	0	372	
13	0	0	0	0	376	
14	0	0	0	0	381	
15	0	0	0	0	386	
0	0	0	0	0	390	
1	0	0	0	0	395	
2	0	0	0	0	401	
3	0	0	0	0	408	
4	0	0	0	0	414	
5	0	0	0	0	420	
6	0	0	0	0	426	
7	0	0	0	0	431	
8	0	0	0	0	433	
9	0	0	0	0	436	
10	0	0	0	0	440	
11	0	0	0	0	444	
12	0	0	0	0	448	
13	0	0	0	0	453	
14	0	0	0	0	459	
15	0	0	0	0	464	
0	0	0	0	0	470	
1	0	0	0	0	475	
2	0	0	0	0	480	
3	0	0	0	0	483	
4	0	0	0	0	486	
5	0	0	0	0	489	
6	0	0	0	0	492	
7	0	0	0	0	495	
8	0	0	0	0	497	
9	0	0	0	0	500	
10	0	0	0	0	503	
11	0	0	0	0	506	
12	0	0	0	0	509	
13	0	0	0	0	512	
14	0	0	0	0	514	
15	0	0	0	0	518	
0	0	0	0	0	522	
1	0	0	0	0	526	
2	0	0	0	0	526	
3	0	0	0	0	528	
4	0	0	0	0	531	
5	0	0	0	0	535	
6	0	0	0	0	538	
7	0	0	0	0	542	
8	0	0	0	0	545	
9	0	0	0	0	546	
10	0	0	0	0	547	
11	0	0	0	0	550	
12	0	0	0	0	552	
13	0	0	0	0	553	
14	0	0	0	0	555	
15	0	0	0	0	557	
0	0	0	0	0	561	
1	0	0	0	0	562	
2	0	0	0	0	563	
3	0	0	0	0	563	
4	0	0	0	0	564	
5	0	0	0	0	565	
6	0	0	0	0	567	
7	0	0	0	0	568	
8	0	0	0	0	567	
9	0	0	0	0	566	
10	0	0	0	0	565	
11	0	0	0	0	563	
12	0	0	0	0	561	
13	0	0	0	0	561	
14	0	0	0	0	560	
15	0	0	0	0	561	
0	0	0	0	0	561	
1	0	0	0	0	561	
2	0	0	0	0	562	
3	0	0	0	0	564	
4	0	0	0	0	567	
5	0	0	0	0	569	
6	0	0	0	0	571	
7	0	0	0	0	572	
8	0	0	0	0	574	
9	0	0	0	0	574	
10	0	0	0	0	574	
11	0	0	0	0	575	
12	0	0	0	0	575	
13	0	0	0	0	574	
14	0	0	0	0	574	
15	0	0	0	0	574	
0	0	0	0	0	574	
1	0	0	0	0	575	
2	0	0	0	0	576	
3	0	0	0	0	576	
4	0	0	0	0	576	
5	0	0	0	0	575	
6	0	0	0	0	575	
7	0	0	0	0	575	
8	0	0	0	0	574	
9	0	0	0	0	573	
10	0	0	0	0	572	
11	0	0	0	0	571	
12	0	0	0	0	571	
13	0	0	0	0	570	
14	0	0	0	0	569	
15	0	0	0	0	569	
0	0	0	0	0	570	
1	0	0	0	0	569	
2	0	0	0	0	570	
3	0	0	0	0	571	
4	0	0	0	0	572	
5	0	0	0	0	574	
6	0	0	0	0	575	
7	0	0	0	0	576	
8	0	0	0	0	577	
9	0	0	0	0	578	
10	0	0	0	0	579	
11	0	0	0	0	578	
12	0	0	0	0	578	
13	0	0	0	0	578	
14	0	0	0	0	578	
15	0	0	0	0	579	
0	0	0	0	0	580	
1	0	0	0	0	582	
2	0	0	0	0	584	
3	0	0	0	0	587	
4	0	0	0	0	588	
5	0	0	0	0	590	
6	0	0	0	0	592	
7	0	0	0	0	592	
8	0	0	0	0	595	
9	0	0	0	0	594	
10	0	0	0	0	592	
11	0	0	0	0	591	
12	0	0	0	0	590	
13	0	0	0	0	589	
14	0	0	0	0	589	
15	0	0	0	0	590	
0	0	0	0	0	591	
1	0	0	0	0	590	
2	0	0	0	0	590	
3	0	0	0	0	590	
4	0	0	0	0	588	
5	0	0	0	0	588	
6	0	0	0	0	589	
7	0	0	0	0	590	
8	0	0	0	0	590	
9	0	0	0	0	591	
10	0	0	0	0	590	
11	0	0	0	0	588	
12	0	0	0	0	587	
13	0	0	0	0	585	
14	0	0	0	0	582	
15	0	0	0	0	580	
0	0	0	0	0	578	
1	0	0	0	0	575	
2	0	0	0	0	572	
3	0	0	0	0	569	
4	0	0	0	0	567	
5	0	0	0	0	565	
6	0	0	0	0	564	
7	0	0	0	0	563	
8	0	0	0	0	560	
9	0	0	0	0	558	
10	0	0	0	0	553	
11	0	0	0	0	547	
12	0	0	0	0	542	
13	0	0	0	0	537	
14	0	0	0	0	533	
15	0	0	0	0	529	
0	0	0	0	0	524	
1	0	0	0	0	520	
2	0	0	0	0	518	
3	0	0	0	0	516	
4	0	0	0	0	514	
5	0	0	0	0	511	
6	0	0	0	0	508	
7	0	0	0	0	505	
8	0	0	0	0	503	
9	0	0	0	0	499	
10	0	0	0	0	496	
11	0	0	0	0	492	
12	0	0	0	0	486	
13	0	0	0	0	479	
14	0	0	0	0	472	
15	0	0	0	0	464	
0	0	0	0	0	456	
1	0	0	0	0	450	
2	0	0	0	0	444	
3	0	0	0	0	440	
4	0	0	0	0	439	
5	0	0	0	0	440	
6	0	0	0	0	444	
7	0	0	0	0	451	
8	0	0	0	0	461	
9	0	0	0	0	472	
10	0	0	0	0	486	
11	0	0	0	0	500	
12	0	0	0	0	520	
13	0	0	0	0	540	
14	0	0	0	0	561	
15	0	0	0	0	585	
0	0	0	0	0	609	
1	0	0	0	0	636	
2	0	0	0	0	664	
3	0	0	0	0	694	
4	0	0	0	0	725	
5	0	0	0	0	755	
6	0	0	0	0	783	
7	0	0	0	0	809	
8	0	0	0	0	830	
9	0	0	0	0	846	
10	0	0	0	0	857	
11	0	0	0	0	865	
12	0	0	0	0	870	
13	0	0	0	0	872	
14	0	0	0	0	871	
15	0	0	0	0	870	
0	0	0	0	0	866	
1	0	0	0	0	860	
2	0	0	0	0	853	
3	0	0	0	0	848	
4	0	0	0	0	840	
5	0	0	0	0	831	
6	0	0	0	0	821	
7	0	0	0	0	811	
8	0	0	0	0	801	
9	0	0	0	0	790	
10	0	0	0	0	778	
11	0	0	0	0	767	
12	0	0	0	0	755	
13	0	0	0	0	744	
14	0	0	0	0	733	
15	0	0	0	0	721	
0	0	0	0	0	709	
1	0	0	0	0	697	
2	0	0	0	0	687	
3	0	0	0	0	675	
4	0	0	0	0	664	
5	0	0	0	0	654	
6	0	0	0	0	643	
7	0	0	0	0	634	
8	0	0	0	0	623	
9	0	0	0	0	614	
10	0	0	0	0	604	
11	0	0	0	0	592	
12	0	0	0	0	583	
13	0	0	0	0	574	
14	0	0	0	0	565	
15	0	0	0	0	556	
0	0	0	0	0	548	
1	0	0	0	0	540	
2	0	0	0	0	531	
3	0	0	0	0	522	
4	0	0	0	0	514	
5	0	0	0	0	506	
6	0	0	0	0	497	
7	0	0	0	0	489	
8	0	0	0	0	483	
9	0	0	0	0	478	
10	0	0	0	0	472	
11	0	0	0	0	467	
12	0	0	0	0	460	
13	0	0	0	0	454	
14	0	0	0	0	447	
15	0	0	0	0	440	
0	0	0	0	0	434	
1	0	0	0	0	429	
2	0	0	0	0	424	
3	0	0	0	0	420	
4	0	0	0	0	415	
5	0	0	0	0	411	
6	0	0	0	0	407	
7	0	0	0	0	403	
8	0	0	0	0	399	
9	0	0	0	0	398	
10	0	0	0	0	396	
11	0	0	0	0	395	
12	0	0	0	0	393	
13	0	0	0	0	391	
14	0	0	0	0	390	
15	0	0	0	0	389	
0	0	0	0	0	389	
1	0	0	0	0	389	
2	0	0	0	0	388	
3	0	0	0	0	388	
4	0	0	0	0	386	
5	0	0	0	0	385	
6	0	0	0	0	384	
7	0	0	0	0	382	
8	0	0	0	0	379	
9	0	0	0	0	378	
10	0	0	0	0	377	
11	0	0	0	0	377	
12	0	0	0	0	377	
13	0	0	0	0	377	
14	0	0	0	0	377	
15	0	0	0	0	376	
0	0	0	0	0	375	
1	0	0	0	0	373	
2	0	0	0	0	372	
3	0	0	0	0	371	
4	0	0	0	0	370	
5	0	0	0	0	368	
6	0	0	0	0	365	
7	0	0	0	0	364	
8	0	0	0	0	363	
9	0	0	0	0	361	
10	0	0	0	0	360	
11	0	0	0	0	359	
12	0	0	0	0	358	
13	0	0	0	0	357	
14	0	0	0	0	355	
15	0	0	0	0	355	
0	0	0	0	0	355	
1	0	0	0	0	352	
2	0	0	0	0	350	
3	0	0	0	0	347	
4	0	0	0	0	344	
5	0	0	0	0	340	
6	0	0	0	0	337	
7	0	0	0	0	333	
8	0	0	0	0	331	
9	0	0	0	0	329	
10	0	0	0	0	327	
11	0	0	0	0	324	
12	0	0	0	0	322	
13	0	0	0	0	319	
14	0	0	0	0	318	
15	0	0	0	0	316	
0	0	0	0	0	316	
1	0	0	0	0	315	
2	0	0	0	0	313	
3	0	0	0	0	312	
4	0	0	0	0	310	
5	0	0	0	0	307	
6	0	0	0	0	303	
7	0	0	0	0	301	
8	0	0	0	0	299	
9	0	0	0	0	298	
10	0	0	0	0	297	
11	0	0	0	0	296	
12	0	0	0	0	296	
13	0	0	0	0	295	
14	0	0	0	0	295	
15	0	0	0	0	295	
0	0	0	0	0	295	
1	0	0	0	0	296	
2	0	0	0	0	297	
3	0	0	0	0	298	
4	0	0	0	0	297	
5	0	0	0	0	297	
6	0	0	0	0	296	
7	0	0	0	0	297	
8	0	0	0	0	299	
9	0	0	0	0	300	
10	0	0	0	0	300	
11	0	0	0	0	303	
12	0	0	0	0	305	
13	0	0	0	0	311	
14	0	0	0	0	317	
15	0	0	0	0	322	
0	0	0	0	0	324	
1	0	0	0	0	327	
2	0	0	0	0	330	
3	0	0	0	0	332	
4	0	0	0	0	334	
5	0	0	0	0	336	
6	0	0	0	0	339	
7	0	0	0	0	344	
8	0	0	0	0	348	
9	0	0	0	0	352	
10	0	0	0	0	357	
11	0	0	0	0	361	
12	0	0	0	0	365	
13	0	0	0	0	369	
14	0	0	0	0	373	
15	0	0	0	0	377	
0	0	0	0	0	381	
1	0	0	0	0	385	
2	0	0	0	0	390	
3	0	0	0	0	396	
4	0	0	0	0	402	
5	0	0	0	0	405	
6	0	0	0	0	408	
7	0	0	0	0	412	
8	0	0	0	0	417	
9	0	0	0	0	422	
10	0	0	0	0	426	
11	0	0	0	0	430	
12	0	0	0	0	434	
13	0	0	0	0	440	
14	0	0	0	0	447	
15	0	0	0	0	453	
0	0	0	0	0	458	
1	0	0	0	0	464	
2	0	0	0	0	466	
3	0	0	0	0	471	
4	0	0	0	0	476	
5	0	0	0	0	480	
6	0	0	0	0	482	
7	0	0	0	0	485	
8	0	0	0	0	487	
9	0	0	0	0	490	
10	0	0	0	0	493	
11	0	0	0	0	498	
12	0	0	0	0	500	
13	0	0	0	0	501	
14	0	0	0	0	504	
15	0	0	0	0	505	
0	0	0	0	0	504	
1	0	0	0	0	507	
2	0	0	0	0	512	
3	0	0	0	0	517	
4	0	0	0	0	519	
5	0	0	0	0	521	
6	0	0	0	0	526	
7	0	0	0	0	531	
8	0	0	0	0	534	
9	0	0	0	0	533	
10	0	0	0	0	533	
11	0	0	0	0	536	
12	0	0	0	0	539	
13	0	0	0	0	540	
14	0	0	0	0	540	
15	0	0	0	0	540	
0	0	0	0	0	543	
1	0	0	0	0	544	
2	0	0	0	0	546	
3	0	0	0	0	546	
4	0	0	0	0	546	
5	0	0	0	0	543	
6	0	0	0	0	541	
7	0	0	0	0	543	
8	0	0	0	0	543	
9	0	0	0	0	543	
10	0	0	0	0	543	
11	0	0	0	0	544	
12	0	0	0	0	543	
13	0	0	0	0	539	
14	0	0	0	0	543	
15	0	0	0	0	548	
0	0	0	0	0	549	
1	0	0	0	0	549	
2	0	0	0	0	549	
3	0	0	0	0	550	
4	0	0	0	0	551	
5	0	0	0	0	551	
6	0	0	0	0	554	
7	0	0	0	0	554	
8	0	0	0	0	554	
9	0	0	0	0	554	
10	0	0	0	0	553	
11	0	0	0	0	554	
12	0	0	0	0	557	
13	0	0	0	0	560	
14	0	0	0	0	560	
15	0	0	0	0	559	
0	0	0	0	0	556	
1	0	0	0	0	556	
2	0	0	0	0	558	
3	0	0	0	0	558	
4	0	0	0	0	556	
5	0	0	0	0	553	
6	0	0	0	0	551	
7	0	0	0	0	551	
8	0	0	0	0	554	
9	0	0	0	0	552	
10	0	0	0	0	551	
11	0	0	0	0	551	
12	0	0	0	0	551	
13	0	0	0	0	550	
14	0	0	0	0	550	
15	0	0	0	0	549	
0	0	0	0	0	550	
1	0	0	0	0	553	
2	0	0	0	0	558	
3	0	0	0	0	562	
4	0	0	0	0	564	
5	0	0	0	0	564	
6	0	0	0	0	566	
7	0	0	0	0	568	
8	0	0	0	0	569	
9	0	0	0	0	573	
10	0	0	0	0	573	
11	0	0	0	0	572	
12	0	0	0	0	570	
13	0	0	0	0	569	
14	0	0	0	0	571	
15	0	0	0	0	572	
0	0	0	0	0	576	
1	0	0	0	0	579	
2	0	0	0	0	579	
3	0	0	0	0	576	
4	0	0	0	0	575	
5	0	0	0	0	576	
6	0	0	0	0	576	
7	0	0	0	0	576	
8	0	0	0	0	577	
9	0	0	0	0	575	
10	0	0	0	0	573	
11	0	0	0	0	572	
12	0	0	0	0	572	
13	0	0	0	0	574	
14	0	0	0	0	574	
15	0	0	0	0	574	
0	0	0	0	0	574	
1	0	0	0	0	573	
2	0	0	0	0	572	
3	0	0	0	0	571	
4	0	0	0	0	572	
5	0	0	0	0	571	
6	0	0	0	0	572	
7	0	0	0	0	572	
8	0	0	0	0	571	
9	0	0	0	0	571	
10	0	0	0	0	571	
11	0	0	0	0	569	
12	0	0	0	0	569	
13	0	0	0	0	569	
14	0	0	0	0	569	
15	0	0	0	0	565	
0	0	0	0	0	561	
1	0	0	0	0	557	
2	0	0	0	0	551	
3	0	0	0	0	547	
4	0	0	0	0	542	
5	0	0	0	0	539	
6	0	0	0	0	535	
7	0	0	0	0	530	
8	0	0	0	0	527	
9	0	0	0	0	524	
10	0	0	0	0	522	
11	0	0	0	0	523	
12	0	0	0	0	523	
13	0	0	0	0	519	
14	0	0	0	0	514	
15	0	0	0	0	509	
0	0	0	0	0	506	
1	0	0	0	0	505	
2	0	0	0	0	501	
3	0	0	0	0	496	
4	0	0	0	0	496	
5	0	0	0	0	492	
6	0	0	0	0	485	
7	0	0	0	0	480	
8	0	0	0	0	474	
9	0	0	0	0	466	
10	0	0	0	0	462	
11	0	0	0	0	460	
12	0	0	0	0	460	
13	0	0	0	0	458	
14	0	0	0	0	457	
15	0	0	0	0	458	
0	0	0	0	0	462	
1	0	0	0	0	467	
2	0	0	0	0	475	
3	0	0	0	0	486	
4	0	0	0	0	499	
5	0	0	0	0	512	
6	0	0	0	0	529	
7	0	0	0	0	553	
8	0	0	0	0	576	
9	0	0	0	0	600	
10	0	0	0	0	627	
11	0	0	0	0	653	
12	0	0	0	0	680	
13	0	0	0	0	713	
14	0	0	0	0	750	
15	0	0	0	0	786	
0	0	0	0	0	815	
1	0	0	0	0	839	
2	0	0	0	0	858	
3	0	0	0	0	874	
4	0	0	0	0	884	
5	0	0	0	0	889	
6	0	0	0	0	893	
7	0	0	0	0	894	
8	0	0	0	0	892	
9	0	0	0	0	887	
10	0	0	0	0	881	
11	0	0	0	0	876	
12	0	0	0	0	870	
13	0	0	0	0	865	
14	0	0	0	0	855	
15	0	0	0	0	844	
0	0	0	0	0	831	
1	0	0	0	0	816	
2	0	0	0	0	804	
3	0	0	0	0	791	
4	0	0	0	0	776	
5	0	0	0	0	762	
6	0	0	0	0	750	
7	0	0	0	0	737	
8	0	0	0	0	722	
9	0	0	0	0	710	
10	0	0	0	0	701	
11	0	0	0	0	687	
12	0	0	0	0	676	
13	0	0	0	0	665	
14	0	0	0	0	653	
15	0	0	0	0	639	
0	0	0	0	0	627	
1	0	0	0	0	615	
2	0	0	0	0	603	
3	0	0	0	0	591	
4	0	0	0	0	578	
5	0	0	0	0	569	
6	0	0	0	0	561	
7	0	0	0	0	553	
8	0	0	0	0	540	
9	0	0	0	0	528	
10	0	0	0	0	519	
11	0	0	0	0	512	
12	0	0	0	0	505	
13	0	0	0	0	499	
14	0	0	0	0	491	
15	0	0	0	0	480	
0	0	0	0	0	473	
1	0	0	0	0	469	
2	0	0	0	0	464	
3	0	0	0	0	455	
4	0	0	0	0	450	
5	0	0	0	0	446	
6	0	0	0	0	441	
7	0	0	0	0	436	
8	0	0	0	0	431	
9	0	0	0	0	426	
10	0	0	0	0	424	
11	0	0	0	0	420	
12	0	0	0	0	417	
13	0	0	0	0	416	
14	0	0	0	0	414	
15	0	0	0	0	412	
0	0	0	0	0	408	
1	0	0	0	0	403	
2	0	0	0	0	400	
3	0	0	0	0	401	
4	0	0	0	0	401	
5	0	0	0	0	398	
6	0	0	0	0	396	
7	0	0	0	0	395	
8	0	0	0	0	396	
9	0	0	0	0	396	
10	0	0	0	0	395	
11	0	0	0	0	395	
12	0	0	0	0	394	
13	0	0	0	0	392	
14	0	0	0	0	392	
15	0	0	0	0	394	
0	0	0	0	0	392	
1	0	0	0	0	390	
2	0	0	0	0	390	
3	0	0	0	0	391	
4	0	0	0	0	390	
5	0	0	0	0	387	
6	0	0	0	0	384	
7	0	0	0	0	382	
8	0	0	0	0	384	
9	0	0	0	0	387	
10	0	0	0	0	384	
11	0	0	0	0	385	
12	0	0	0	0	382	
13	0	0	0	0	380	
14	0	0	0	0	379	
15	0	0	0	0	378	
0	0	0	0	0	376	
1	0	0	0	0	373	
2	0	0	0	0	372	
3	0	0	0	0	369	
4	0	0	0	0	365	
5	0	0	0	0	362	
6	0	0	0	0	362	
7	0	0	0	0	359	
8	0	0	0	0	356	
9	0	0	0	0	355	
10	0	0	0	0	355	
11	0	0	0	0	353	
12	0	0	0	0	351	
13	0	0	0	0	351	
14	0	0	0	0	349	
15	0	0	0	0	348	
0	0	0	0	0	347	
1	0	0	0	0	344	
2	0	0	0	0	341	
3	0	0	0	0	339	
4	0	0	0	0	335	
5	0	0	0	0	332	
6	0	0	0	0	329	
7	0	0	0	0	326	
8	0	0	0	0	323	
9	0	0	0	0	320	
10	0	0	0	0	318	
11	0	0	0	0	314	
12	0	0	0	0	311	
13	0	0	0	0	308	
14	0	0	0	0	309	
15	0	0	0	0	309	
0	0	0	0	0	307	
1	0	0	0	0	304	
2	0	0	0	0	305	
3	0	0	0	0	305	
4	0	0	0	0	300	
5	0	0	0	0	297	
6	0	0	0	0	295	
7	0	0	0	0	292	
8	0	0	0	0	289	
9	0	0	0	0	287	
10	0	0	0	0	287	
11	0	0	0	0	288	
12	0	0	0	0	289	
13	0	0	0	0	290	
14	0	0	0	0	291	
15	0	0	0	0	296	
0	0	0	0	0	300	
1	0	0	0	0	302	
2	0	0	0	0	301	
3	0	0	0	0	303	
4	0	0	0	0	305	
5	0	0	0	0	307	
6	0	0	0	0	308	
7	0	0	0	0	310	
8	0	0	0	0	311	
9	0	0	0	0	314	
10	0	0	0	0	317	
11	0	0	0	0	320	
12	0	0	0	0	325	
13	0	0	0	0	330	
14	0	0	0	0	332	
15	0	0	0	0	336	
0	0	0	0	0	338	
1	0	0	0	0	343	
2	0	0	0	0	348	
3	0	0	0	0	353	
4	0	0	0	0	357	
5	0	0	0	0	364	
6	0	0	0	0	368	
7	0	0	0	0	374	
8	0	0	0	0	377	
9	0	0	0	0	382	
10	0	0	0	0	385	
11	0	0	0	0	391	
12	0	0	0	0	396	
13	0	0	0	0	401	
14	0	0	0	0	406	
15	0	0	0	0	411	
0	0	0	0	0	418	
1	0	0	0	0	425	
2	0	0	0	0	429	
3	0	0	0	0	433	
4	0	0	0	0	436	
5	0	0	0	0	442	
6	0	0	0	0	446	
7	0	0	0	0	451	
8	0	0	0	0	454	
9	0	0	0	0	455	
10	0	0	0	0	458	
11	0	0	0	0	462	
12	0	0	0	0	468	
13	0	0	0	0	473	
14	0	0	0	0	479	
15	0	0	0	0	486	
0	0	0	0	0	492	
1	0	0	0	0	497	
2	0	0	0	0	501	
3	0	0	0	0	505	
4	0	0	0	0	506	
5	0	0	0	0	506	
6	0	0	0	0	508	
7	0	0	0	0	511	
8	0	0	0	0	513	
9	0	0	0	0	515	
10	0	0	0	0	517	
11	0	0	0	0	521	
12	0	0	0	0	525	
13	0	0	0	0	528	
14	0	0	0	0	532	
15	0	0	0	0	536	
0	0	0	0	0	538	
1	0	0	0	0	539	
2	0	0	0	0	540	
3	0	0	0	0	542	
4	0	0	0	0	545	
5	0	0	0	0	548	
6	0	0	0	0	551	
7	0	0	0	0	554	
8	0	0	0	0	557	
9	0	0	0	0	559	
10	0	0	0	0	559	
11	0	0	0	0	560	
12	0	0	0	0	561	
13	0	0	0	0	563	
14	0	0	0	0	564	
15	0	0	0	0	567	
0	0	0	0	0	566	
1	0	0	0	0	565	
2	0	0	0	0	566	
3	0	0	0	0	567	
4	0	0	0	0	567	
5	0	0	0	0	566	
6	0	0	0	0	566	
7	0	0	0	0	567	
8	0	0	0	0	566	
9	0	0	0	0	565	
10	0	0	0	0	565	
11	0	0	0	0	566	
12	0	0	0	0	566	
13	0	0	0	0	564	
14	0	0	0	0	566	
15	0	0	0	0	568	
0	0	0	0	0	569	
1	0	0	0	0	571	
2	0	0	0	0	573	
3	0	0	0	0	575	
4	0	0	0	0	576	
5	0	0	0	0	575	
6	0	0	0	0	576	
7	0	0	0	0	577	
8	0	0	0	0	578	
9	0	0	0	0	577	
10	0	0	0	0	576	
11	0	0	0	0	574	
12	0	0	0	0	573	
13	0	0	0	0	572	
14	0	0	0	0	570	
15	0	0	0	0	569	
0	0	0	0	0	569	
1	0	0	0	0	566	
2	0	0	0	0	566	
3	0	0	0	0	565	
4	0	0	0	0	564	
5	0	0	0	0	565	
6	0	0	0	0	567	
7	0	0	0	0	566	
8	0	0	0	0	565	
9	0	0	0	0	566	
10	0	0	0	0	568	
11	0	0	0	0	568	
12	0	0	0	0	569	
13	0	0	0	0	570	
14	0	0	0	0	571	
15	0	0	0	0	572	
0	0	0	0	0	574	
1	0	0	0	0	577	
2	0	0	0	0	578	
3	0	0	0	0	579	
4	0	0	0	0	582	
5	0	0	0	0	584	
6	0	0	0	0	587	
7	0	0	0	0	588	
8	0	0	0	0	590	
9	0	0	0	0	591	
10	0	0	0	0	592	
11	0	0	0	0	593	
12	0	0	0	0	593	
13	0	0	0	0	593	
14	0	0	0	0	593	
15	0	0	0	0	593	
0	0	0	0	0	591	
1	0	0	0	0	590	
2	0	0	0	0	589	
3	0	0	0	0	589	
4	0	0	0	0	588	
5	0	0	0	0	588	
6	0	0	0	0	588	
7	0	0	0	0	587	
8	0	0	0	0	586	
9	0	0	0	0	586	
10	0	0	0	0	584	
11	0	0	0	0	583	
12	0	0	0	0	584	
13	0	0	0	0	582	
14	0	0	0	0	579	
15	0	0	0	0	578	
0	0	0	0	0	578	
1	0	0	0	0	579	
2	0	0	0	0	582	
3	0	0	0	0	583	
4	0	0	0	0	583	
5	0	0	0	0	583	
6	0	0	0	0	583	
7	0	0	0	0	582	
8	0	0	0	0	580	
9	0	0	0	0	577	
10	0	0	0	0	573	
11	0	0	0	0	570	
12	0	0	0	0	566	
13	0	0	0	0	562	
14	0	0	0	0	558	
15	0	0	0	0	554	
0	0	0	0	0	550	
1	0	0	0	0	546	
2	0	0	0	0	540	
3	0	0	0	0	534	
4	0	0	0	0	528	
5	0	0	0	0	523	
6	0	0	0	0	519	
7	0	0	0	0	515	
8	0	0	0	0	512	
9	0	0	0	0	509	
10	0	0	0	0	505	
11	0	0	0	0	500	
12	0	0	0	0	494	
13	0	0	0	0	486	
14	0	0	0	0	480	
15	0	0	0	0	474	
0	0	0	0	0	470	
1	0	0	0	0	466	
2	0	0	0	0	463	
3	0	0	0	0	460	
4	0	0	0	0	455	
5	0	0	0	0	450	
6	0	0	0	0	446	
7	0	0	0	0	445	
8	0	0	0	0	443	
9	0	0	0	0	442	
10	0	0	0	0	441	
11	0	0	0	0	443	
12	0	0	0	0	447	
13	0	0	0	0	454	
14	0	0	0	0	463	
15	0	0	0	0	476	
0	0	0	0	0	491	
1	0	0	0	0	510	
2	0	0	0	0	535	
3	0	0	0	0	564	
4	0	0	0	0	593	
5	0	0	0	0	623	
6	0	0	0	0	652	
7	0	0	0	0	682	
8	0	0	0	0	711	
9	0	0	0	0	743	
10	0	0	0	0	778	
11	0	0	0	0	814	
12	0	0	0	0	846	
13	0	0	0	0	871	
14	0	0	0	0	895	
15	0	0	0	0	913	
0	0	0	0	0	925	
1	0	0	0	0	930	
2	0	0	0	0	934	
3	0	0	0	0	934	
4	0	0	0	0	932	
5	0	0	0	0	930	
6	0	0	0	0	927	
7	0	0	0	0	923	
8	0	0	0	0	917	
9	0	0	0	0	908	
10	0	0	0	0	897	
11	0	0	0	0	884	
12	0	0	0	0	871	
13	0	0	0	0	856	
14	0	0	0	0	841	
15	0	0	0	0	825	
0	0	0	0	0	809	
1	0	0	0	0	792	
2	0	0	0	0	776	
3	0	0	0	0	762	
4	0	0	0	0	747	
5	0	0	0	0	732	
6	0	0	0	0	719	
7	0	0	0	0	707	
8	0	0	0	0	696	
9	0	0	0	0	685	
10	0	0	0	0	673	
11	0	0	0	0	660	
12	0	0	0	0	646	
13	0	0	0	0	632	
14	0	0	0	0	617	
15	0	0	0	0	601	
0	0	0	0	0	589	
1	0	0	0	0	575	
2	0	0	0	0	562	
3	0	0	0	0	552	
4	0	0	0	0	542	
5	0	0	0	0	531	
6	0	0	0	0	521	
7	0	0	0	0	512	
8	0	0	0	0	505	
9	0	0	0	0	495	
10	0	0	0	0	488	
11	0	0	0	0	482	
12	0	0	0	0	474	
13	0	0	0	0	464	
14	0	0	0	0	457	
15	0	0	0	0	450	
0	0	0	0	0	443	
1	0	0	0	0	437	
2	0	0	0	0	431	
3	0	0	0	0	425	
4	0	0	0	0	422	
5	0	0	0	0	418	
6	0	0	0	0	414	
7	0	0	0	0	412	
8	0	0	0	0	409	
9	0	0	0	0	406	
10	0	0	0	0	404	
11	0	0	0	0	404	
12	0	0	0	0	405	
13	0	0	0	0	405	
14	0	0	0	0	400	
15	0	0	0	0	397	
0	0	0	0	0	395	
1	0	0	0	0	394	
2	0	0	0	0	392	
3	0	0	0	0	390	
4	0	0	0	0	387	
5	0	0	0	0	385	
6	0	0	0	0	383	
7	0	0	0	0	381	
8	0	0	0	0	381	
9	0	0	0	0	380	
10	0	0	0	0	379	
11	0	0	0	0	380	
12	0	0	0	0	381	
13	0	0	0	0	382	
14	0	0	0	0	382	
15	0	0	0	0	379	
0	0	0	0	0	376	
1	0	0	0	0	372	
2	0	0	0	0	368	
3	0	0	0	0	366	
4	0	0	0	0	364	
5	0	0	0	0	364	
6	0	0	0	0	366	
7	0	0	0	0	367	
8	0	0	0	0	368	
9	0	0	0	0	367	
10	0	0	0	0	366	
11	0	0	0	0	366	
12	0	0	0	0	365	
13	0	0	0	0	366	
14	0	0	0	0	365	
15	0	0	0	0	363	
0	0	0	0	0	360	
1	0	0	0	0	356	
2	0	0	0	0	352	
3	0	0	0	0	351	
4	0	0	0	0	350	
5	0	0	0	0	348	
6	0	0	0	0	345	
7	0	0	0	0	340	
8	0	0	0	0	338	
9	0	0	0	0	339	
10	0	0	0	0	340	
11	0	0	0	0	336	
12	0	0	0	0	331	
13	0	0	0	0	327	
14	0	0	0	0	324	
15	0	0	0	0	323	
0	0	0	0	0	320	
1	0	0	0	0	319	
2	0	0	0	0	317	
3	0	0	0	0	315	
4	0	0	0	0	311	
5	0	0	0	0	309	
6	0	0	0	0	307	
7	0	0	0	0	305	
8	0	0	0	0	304	
9	0	0	0	0	303	
10	0	0	0	0	300	
11	0	0	0	0	297	
12	0	0	0	0	293	
13	0	0	0	0	292	
14	0	0	0	0	292	
15	0	0	0	0	289	
0	0	0	0	0	289	
1	0	0	0	0	289	
2	0	0	0	0	290	
3	0	0	0	0	291	
4	0	0	0	0	289	
5	0	0	0	0	289	
6	0	0	0	0	287	
7	0	0	0	0	287	
8	0	0	0	0	287	
9	0	0	0	0	287	
10	0	0	0	0	290	
11	0	0	0	0	291	
12	0	0	0	0	293	
13	0	0	0	0	295	
14	0	0	0	0	297	
15	0	0	0	0	299	
0	0	0	0	0	299	
1	0	0	0	0	299	
2	0	0	0	0	299	
3	0	0	0	0	299	
4	0	0	0	0	302	
5	0	0	0	0	307	
6	0	0	0	0	311	
7	0	0	0	0	315	
8	0	0	0	0	320	
9	0	0	0	0	323	
10	0	0	0	0	326	
11	0	0	0	0	329	
12	0	0	0	0	333	
13	0	0	0	0	339	
14	0	0	0	0	345	
15	0	0	0	0	352	
0	0	0	0	0	360	
1	0	0	0	0	365	
2	0	0	0	0	368	
3	0	0	0	0	372	
4	0	0	0	0	376	
5	0	0	0	0	379	
6	0	0	0	0	385	
7	0	0	0	0	391	
8	0	0	0	0	396	
9	0	0	0	0	401	
10	0	0	0	0	405	
11	0	0	0	0	411	
12	0	0	0	0	417	
13	0	0	0	0	423	
14	0	0	0	0	432	
15	0	0	0	0	440	
0	0	0	0	0	443	
1	0	0	0	0	448	
2	0	0	0	0	452	
3	0	0	0	0	457	
4	0	0	0	0	465	
5	0	0	0	0	467	
6	0	0	0	0	470	
7	0	0	0	0	472	
8	0	0	0	0	476	
9	0	0	0	0	481	
10	0	0	0	0	485	
11	0	0	0	0	488	
12	0	0	0	0	491	
13	0	0	0	0	495	
14	0	0	0	0	499	
15	0	0	0	0	504	
0	0	0	0	0	507	
1	0	0	0	0	512	
2	0	0	0	0	516	
3	0	0	0	0	519	
4	0	0	0	0	524	
5	0	0	0	0	527	
6	0	0	0	0	528	
7	0	0	0	0	529	
8	0	0	0	0	531	
9	0	0	0	0	533	
10	0	0	0	0	533	
11	0	0	0	0	534	
12	0	0	0	0	537	
13	0	0	0	0	541	
14	0	0	0	0	543	
15	0	0	0	0	547	
0	0	0	0	0	551	
1	0	0	0	0	555	
2	0	0	0	0	559	
3	0	0	0	0	562	
4	0	0	0	0	567	
5	0	0	0	0	570	
6	0	0	0	0	572	
7	0	0	0	0	575	
8	0	0	0	0	574	
9	0	0	0	0	575	
10	0	0	0	0	576	
11	0	0	0	0	577	
12	0	0	0	0	577	
13	0	0	0	0	576	
14	0	0	0	0	578	
15	0	0	0	0	579	
0	0	0	0	0	579	
1	0	0	0	0	581	
2	0	0	0	0	580	
3	0	0	0	0	578	
4	0	0	0	0	579	
5	0	0	0	0	580	
6	0	0	0	0	577	
7	0	0	0	0	574	
8	0	0	0	0	573	
9	0	0	0	0	575	
10	0	0	0	0	575	
11	0	0	0	0	575	
12	0	0	0	0	578	
13	0	0	0	0	582	
14	0	0	0	0	583	
15	0	0	0	0	587	
0	0	0	0	0	590	
1	0	0	0	0	593	
2	0	0	0	0	593	
3	0	0	0	0	593	
4	0	0	0	0	594	
5	0	0	0	0	593	
6	0	0	0	0	592	
7	0	0	0	0	592	
8	0	0	0	0	593	
9	0	0	0	0	595	
10	0	0	0	0	598	
11	0	0	0	0	598	
12	0	0	0	0	598	
13	0	0	0	0	598	
14	0	0	0	0	592	
15	0	0	0	0	590	
0	0	0	0	0	591	
1	0	0	0	0	591	
2	0	0	0	0	590	
3	0	0	0	0	588	
4	0	0	0	0	585	
5	0	0	0	0	584	
6	0	0	0	0	583	
7	0	0	0	0	584	
8	0	0	0	0	583	
9	0	0	0	0	580	
10	0	0	0	0	580	
11	0	0	0	0	582	
12	0	0	0	0	582	
13	0	0	0	0	582	
14	0	0	0	0	587	
15	0	0	0	0	591	
0	0	0	0	0	593	
1	0	0	0	0	595	
2	0	0	0	0	596	
3	0	0	0	0	597	
4	0	0	0	0	598	
5	0	0	0	0	601	
6	0	0	0	0	602	
7	0	0	0	0	600	
8	0	0	0	0	600	
9	0	0	0	0	600	
10	0	0	0	0	603	
11	0	0	0	0	601	
12	0	0	0	0	601	
13	0	0	0	0	601	
14	0	0	0	0	599	
15	0	0	0	0	600	
0	0	0	0	0	600	
1	0	0	0	0	602	
2	0	0	0	0	604	
3	0	0	0	0	604	
4	0	0	0	0	602	
5	0	0	0	0	598	
6	0	0	0	0	598	
7	0	0	0	0	599	
8	0	0	0	0	599	
9	0	0	0	0	600	
10	0	0	0	0	598	
11	0	0	0	0	596	
12	0	0	0	0	594	
13	0	0	0	0	594	
14	0	0	0	0	593	
15	0	0	0	0	592	
0	0	0	0	0	591	
1	0	0	0	0	591	
2	0	0	0	0	592	
3	0	0	0	0	595	
4	0	0	0	0	594	
5	0	0	0	0	592	
6	0	0	0	0	589	
7	0	0	0	0	585	
8	0	0	0	0	583	
9	0	0	0	0	582	
10	0	0	0	0	579	
11	0	0	0	0	576	
12	0	0	0	0	572	
13	0	0	0	0	570	
14	0	0	0	0	570	
15	0	0	0	0	568	
0	0	0	0	0	563	
1	0	0	0	0	561	
2	0	0	0	0	558	
3	0	0	0	0	556	
4	0	0	0	0	552	
5	0	0	0	0	549	
6	0	0	0	0	545	
7	0	0	0	0	542	
8	0	0	0	0	537	
9	0	0	0	0	532	
10	0	0	0	0	528	
11	0	0	0	0	524	
12	0	0	0	0	520	
13	0	0	0	0	516	
14	0	0	0	0	513	
15	0	0	0	0	508	
0	0	0	0	0	499	
1	0	0	0	0	491	
2	0	0	0	0	487	
3	0	0	0	0	480	
4	0	0	0	0	476	
5	0	0	0	0	470	
6	0	0	0	0	467	
7	0	0	0	0	463	
8	0	0	0	0	456	
9	0	0	0	0	452	
10	0	0	0	0	452	
11	0	0	0	0	456	
12	0	0	0	0	464	
13	0	0	0	0	474	
14	0	0	0	0	480	
15	0	0	0	0	492	
0	0	0	0	0	507	
1	0	0	0	0	523	
2	0	0	0	0	540	
3	0	0	0	0	562	
4	0	0	0	0	587	
5	0	0	0	0	615	
6	0	0	0	0	641	
7	0	0	0	0	670	
8	0	0	0	0	700	
9	0	0	0	0	732	
10	0	0	0	0	766	
11	0	0	0	0	799	
12	0	0	0	0	821	
13	0	0	0	0	841	
14	0	0	0	0	854	
15	0	0	0	0	865	
0	0	0	0	0	870	
1	0	0	0	0	871	
2	0	0	0	0	873	
3	0	0	0	0	878	
4	0	0	0	0	881	
5	0	0	0	0	880	
6	0	0	0	0	879	
7	0	0	0	0	878	
8	0	0	0	0	871	
9	0	0	0	0	862	
10	0	0	0	0	853	
11	0	0	0	0	842	
12	0	0	0	0	835	
13	0	0	0	0	824	
14	0	0	0	0	812	
15	0	0	0	0	800	
0	0	0	0	0	788	
1	0	0	0	0	774	
2	0	0	0	0	760	
3	0	0	0	0	750	
4	0	0	0	0	739	
5	0	0	0	0	727	
6	0	0	0	0	714	
7	0	0	0	0	704	
8	0	0	0	0	695	
9	0	0	0	0	685	
10	0	0	0	0	675	
11	0	0	0	0	665	
12	0	0	0	0	655	
13	0	0	0	0	647	
14	0	0	0	0	638	
15	0	0	0	0	627	
0	0	0	0	0	618	
1	0	0	0	0	610	
2	0	0	0	0	603	
3	0	0	0	0	595	
4	0	0	0	0	587	
5	0	0	0	0	578	
6	0	0	0	0	570	
7	0	0	0	0	560	
8	0	0	0	0	549	
9	0	0	0	0	537	
10	0	0	0	0	525	
11	0	0	0	0	514	
12	0	0	0	0	503	
13	0	0	0	0	495	
14	0	0	0	0	487	
15	0	0	0	0	479	
0	0	0	0	0	473	
1	0	0	0	0	468	
2	0	0	0	0	464	
3	0	0	0	0	457	
4	0	0	0	0	452	
5	0	0	0	0	447	
6	0	0	0	0	444	
7	0	0	0	0	441	
8	0	0	0	0	438	
9	0	0	0	0	431	
10	0	0	0	0	427	
11	0	0	0	0	425	
12	0	0	0	0	424	
13	0	0	0	0	421	
14	0	0	0	0	416	
15	0	0	0	0	412	
0	0	0	0	0	409	
1	0	0	0	0	407	
2	0	0	0	0	405	
3	0	0	0	0	403	
4	0	0	0	0	402	
5	0	0	0	0	401	
6	0	0	0	0	400	
7	0	0	0	0	399	
8	0	0	0	0	400	
9	0	0	0	0	401	
10	0	0	0	0	399	
11	0	0	0	0	396	
12	0	0	0	0	394	
13	0	0	0	0	391	
14	0	0	0	0	388	
15	0	0	0	0	387	
0	0	0	0	0	388	
1	0	0	0	0	386	
2	0	0	0	0	386	
3	0	0	0	0	385	
4	0	0	0	0	383	
5	0	0	0	0	383	
6	0	0	0	0	383	
7	0	0	0	0	383	
8	0	0	0	0	382	
9	0	0	0	0	380	
10	0	0	0	0	381	
11	0	0	0	0	382	
12	0	0	0	0	383	
13	0	0	0	0	381	
14	0	0	0	0	380	
15	0	0	0	0	377	
0	0	0	0	0	374	
1	0	0	0	0	373	
2	0	0	0	0	373	
3	0	0	0	0	371	
4	0	0	0	0	366	
5	0	0	0	0	362	
6	0	0	0	0	361	
7	0	0	0	0	359	
8	0	0	0	0	356	
9	0	0	0	0	354	
10	0	0	0	0	350	
11	0	0	0	0	348	
12	0	0	0	0	349	
13	0	0	0	0	347	
14	0	0	0	0	339	
15	0	0	0	0	335	
0	0	0	0	0	335	
1	0	0	0	0	332	
2	0	0	0	0	329	
3	0	0	0	0	327	
4	0	0	0	0	325	
5	0	0	0	0	323	
6	0	0	0	0	320	
7	0	0	0	0	317	
8	0	0	0	0	316	
9	0	0	0	0	315	
10	0	0	0	0	314	
11	0	0	0	0	315	
12	0	0	0	0	316	
13	0	0	0	0	316	
14	0	0	0	0	318	
15	0	0	0	0	317	
0	0	0	0	0	313	
1	0	0	0	0	311	
2	0	0	0	0	310	
3	0	0	0	0	308	
4	0	0	0	0	305	
5	0	0	0	0	304	
6	0	0	0	0	303	
7	0	0	0	0	303	
8	0	0	0	0	301	
9	0	0	0	0	301	
10	0	0	0	0	303	
11	0	0	0	0	306	
12	0	0	0	0	307	
13	0	0	0	0	306	
14	0	0	0	0	308	
15	0	0	0	0	310	
0	0	0	0	0	309	
1	0	0	0	0	310	
2	0	0	0	0	311	
3	0	0	0	0	312	
4	0	0	0	0	314	
5	0	0	0	0	316	
6	0	0	0	0	318	
7	0	0	0	0	321	
8	0	0	0	0	327	
9	0	0	0	0	332	
10	0	0	0	0	337	
11	0	0	0	0	339	
12	0	0	0	0	340	
13	0	0	0	0	341	
14	0	0	0	0	346	
15	0	0	0	0	352	
0	0	0	0	0	357	
1	0	0	0	0	361	
2	0	0	0	0	367	
3	0	0	0	0	371	
4	0	0	0	0	375	
5	0	0	0	0	379	
6	0	0	0	0	385	
7	0	0	0	0	391	
8	0	0	0	0	395	
9	0	0	0	0	400	
10	0	0	0	0	405	
11	0	0	0	0	410	
12	0	0	0	0	415	
13	0	0	0	0	421	
14	0	0	0	0	427	
15	0	0	0	0	432	
0	0	0	0	0	436	
1	0	0	0	0	441	
2	0	0	0	0	447	
3	0	0	0	0	451	
4	0	0	0	0	455	
5	0	0	0	0	459	
6	0	0	0	0	464	
7	0	0	0	0	469	
8	0	0	0	0	473	
9	0	0	0	0	478	
10	0	0	0	0	481	
11	0	0	0	0	484	
12	0	0	0	0	487	
13	0	0	0	0	489	
14	0	0	0	0	493	
15	0	0	0	0	495	
0	0	0	0	0	497	
1	0	0	0	0	499	
2	0	0	0	0	502	
3	0	0	0	0	505	
4	0	0	0	0	507	
5	0	0	0	0	508	
6	0	0	0	0	511	
7	0	0	0	0	514	
8	0	0	0	0	518	
9	0	0	0	0	520	
10	0	0	0	0	523	
11	0	0	0	0	525	
12	0	0	0	0	527	
13	0	0	0	0	530	
14	0	0	0	0	532	
15	0	0	0	0	535	
0	0	0	0	0	537	
1	0	0	0	0	540	
2	0	0	0	0	542	
3	0	0	0	0	543	
4	0	0	0	0	544	
5	0	0	0	0	543	
6	0	0	0	0	543	
7	0	0	0	0	543	
8	0	0	0	0	543	
9	0	0	0	0	544	
10	0	0	0	0	544	
11	0	0	0	0	545	
12	0	0	0	0	545	
13	0	0	0	0	547	
14	0	0	0	0	547	
15	0	0	0	0	548	
0	0	0	0	0	548	
1	0	0	0	0	548	
2	0	0	0	0	547	
3	0	0	0	0	546	
4	0	0	0	0	544	
5	0	0	0	0	545	
6	0	0	0	0	545	
7	0	0	0	0	544	
8	0	0	0	0	544	
9	0	0	0	0	545	
10	0	0	0	0	547	
11	0	0	0	0	548	
12	0	0	0	0	550	
13	0	0	0	0	552	
14	0	0	0	0	553	
15	0	0	0	0	555	
0	0	0	0	0	558	
1	0	0	0	0	559	
2	0	0	0	0	562	
3	0	0	0	0	563	
4	0	0	0	0	565	
5	0	0	0	0	567	
6	0	0	0	0	568	
7	0	0	0	0	569	
8	0	0	0	0	568	
9	0	0	0	0	566	
10	0	0	0	0	566	
11	0	0	0	0	564	
12	0	0	0	0	563	
13	0	0	0	0	561	
14	0	0	0	0	560	
15	0	0	0	0	560	
0	0	0	0	0	559	
1	0	0	0	0	561	
2	0	0	0	0	561	
3	0	0	0	0	561	
4	0	0	0	0	561	
5	0	0	0	0	560	
6	0	0	0	0	561	
7	0	0	0	0	561	
8	0	0	0	0	560	
9	0	0	0	0	559	
10	0	0	0	0	559	
11	0	0	0	0	558	
12	0	0	0	0	559	
13	0	0	0	0	560	
14	0	0	0	0	561	
15	0	0	0	0	563	
0	0	0	0	0	564	
1	0	0	0	0	566	
2	0	0	0	0	568	
3	0	0	0	0	570	
4	0	0	0	0	571	
5	0	0	0	0	571	
6	0	0	0	0	572	
7	0	0	0	0	573	
8	0	0	0	0	574	
9	0	0	0	0	575	
10	0	0	0	0	576	
11	0	0	0	0	578	
12	0	0	0	0	579	
13	0	0	0	0	580	
14	0	0	0	0	581	
15	0	0	0	0	582	
0	0	0	0	0	581	
1	0	0	0	0	579	
2	0	0	0	0	579	
3	0	0	0	0	579	
4	0	0	0	0	578	
5	0	0	0	0	577	
6	0	0	0	0	576	
7	0	0	0	0	577	
8	0	0	0	0	575	
9	0	0	0	0	574	
10	0	0	0	0	573	
11	0	0	0	0	571	
12	0	0	0	0	570	
13	0	0	0	0	568	
14	0	0	0	0	568	
15	0	0	0	0	568	
0	0	0	0	0	566	
1	0	0	0	0	564	
2	0	0	0	0	563	
3	0	0	0	0	563	
4	0	0	0	0	563	
5	0	0	0	0	562	
6	0	0	0	0	562	
7	0	0	0	0	561	
8	0	0	0	0	561	
9	0	0	0	0	559	
10	0	0	0	0	558	
11	0	0	0	0	557	
12	0	0	0	0	555	
13	0	0	0	0	553	
14	0	0	0	0	550	
15	0	0	0	0	548	
0	0	0	0	0	544	
1	0	0	0	0	540	
2	0	0	0	0	538	
3	0	0	0	0	535	
4	0	0	0	0	531	
5	0	0	0	0	529	
6	0	0	0	0	527	
7	0	0	0	0	524	
8	0	0	0	0	521	
9	0	0	0	0	518	
10	0	0	0	0	513	
11	0	0	0	0	508	
12	0	0	0	0	502	
13	0	0	0	0	496	
14	0	0	0	0	490	
15	0	0	0	0	485	
0	0	0	0	0	480	
1	0	0	0	0	475	
2	0	0	0	0	469	
3	0	0	0	0	463	
4	0	0	0	0	456	
5	0	0	0	0	450	
6	0	0	0	0	447	
7	0	0	0	0	444	
8	0	0	0	0	441	
9	0	0	0	0	439	
10	0	0	0	0	438	
11	0	0	0	0	440	
12	0	0	0	0	443	
13	0	0	0	0	451	
14	0	0	0	0	460	
15	0	0	0	0	470	
0	0	0	0	0	482	
1	0	0	0	0	497	
2	0	0	0	0	518	
3	0	0	0	0	541	
4	0	0	0	0	564	
5	0	0	0	0	589	
6	0	0	0	0	616	
7	0	0	0	0	646	
8	0	0	0	0	675	
9	0	0	0	0	706	
10	0	0	0	0	739	
11	0	0	0	0	769	
12	0	0	0	0	794	
13	0	0	0	0	814	
14	0	0	0	0	829	
15	0	0	0	0	840	
0	0	0	0	0	846	
1	0	0	0	0	850	
2	0	0	0	0	853	
3	0	0	0	0	854	
4	0	0	0	0	854	
5	0	0	0	0	852	
6	0	0	0	0	849	
7	0	0	0	0	844	
8	0	0	0	0	839	
9	0	0	0	0	833	
10	0	0	0	0	827	
11	0	0	0	0	819	
12	0	0	0	0	809	
13	0	0	0	0	799	
14	0	0	0	0	787	
15	0	0	0	0	773	
0	0	0	0	0	760	
1	0	0	0	0	748	
2	0	0	0	0	736	
3	0	0	0	0	726	
4	0	0	0	0	716	
5	0	0	0	0	706	
6	0	0	0	0	698	
7	0	0	0	0	688	
8	0	0	0	0	679	
9	0	0	0	0	671	
10	0	0	0	0	661	
11	0	0	0	0	651	
12	0	0	0	0	641	
13	0	0	0	0	631	
14	0	0	0	0	621	
15	0	0	0	0	611	
0	0	0	0	0	600	
1	0	0	0	0	590	
2	0	0	0	0	580	
3	0	0	0	0	569	
4	0	0	0	0	559	
5	0	0	0	0	551	
6	0	0	0	0	542	
7	0	0	0	0	533	
8	0	0	0	0	524	
9	0	0	0	0	515	
10	0	0	0	0	507	
11	0	0	0	0	499	
12	0	0	0	0	492	
13	0	0	0	0	485	
14	0	0	0	0	478	
15	0	0	0	0	471	
0	0	0	0	0	464	
1	0	0	0	0	459	
2	0	0	0	0	452	
3	0	0	0	0	444	
4	0	0	0	0	438	
5	0	0	0	0	434	
6	0	0	0	0	431	
7	0	0	0	0	427	
8	0	0	0	0	422	
9	0	0	0	0	418	
10	0	0	0	0	415	
11	0	0	0	0	413	
12	0	0	0	0	409	
13	0	0	0	0	407	
14	0	0	0	0	403	
15	0	0	0	0	399	
0	0	0	0	0	396	
1	0	0	0	0	394	
2	0	0	0	0	391	
3	0	0	0	0	390	
4	0	0	0	0	389	
5	0	0	0	0	387	
6	0	0	0	0	385	
7	0	0	0	0	385	
8	0	0	0	0	385	
9	0	0	0	0	385	
10	0	0	0	0	384	
11	0	0	0	0	383	
12	0	0	0	0	382	
13	0	0	0	0	382	
14	0	0	0	0	380	
15	0	0	0	0	380	
0	0	0	0	0	380	
1	0	0	0	0	380	
2	0	0	0	0	378	
3	0	0	0	0	376	
4	0	0	0	0	375	
5	0	0	0	0	375	
6	0	0	0	0	374	
7	0	0	0	0	373	
8	0	0	0	0	372	
9	0	0	0	0	371	
10	0	0	0	0	370	
11	0	0	0	0	370	
12	0	0	0	0	369	
13	0	0	0	0	368	
14	0	0	0	0	367	
15	0	0	0	0	366	
0	0	0	0	0	364	
1	0	0	0	0	361	
2	0	0	0	0	359	
3	0	0	0	0	358	
4	0	0	0	0	356	
5	0	0	0	0	354	
6	0	0	0	0	353	
7	0	0	0	0	353	
8	0	0	0	0	351	
9	0	0	0	0	349	
10	0	0	0	0	347	
11	0	0	0	0	343	
12	0	0	0	0	339	
13	0	0	0	0	336	
14	0	0	0	0	334	
15	0	0	0	0	331	
0	0	0	0	0	328	
1	0	0	0	0	326	
2	0	0	0	0	323	
3	0	0	0	0	321	
4	0	0	0	0	319	
5	0	0	0	0	317	
6	0	0	0	0	314	
7	0	0	0	0	312	
8	0	0	0	0	311	
9	0	0	0	0	310	
10	0	0	0	0	309	
11	0	0	0	0	308	
12	0	0	0	0	307	
13	0	0	0	0	306	
14	0	0	0	0	304	
15	0	0	0	0	301	
0	0	0	0	0	299	
1	0	0	0	0	298	
2	0	0	0	0	296	
3	0	0	0	0	295	
4	0	0	0	0	295	
5	0	0	0	0	295	
6	0	0	0	0	294	
7	0	0	0	0	292	
8	0	0	0	0	292	
9	0	0	0	0	294	
10	0	0	0	0	295	
11	0	0	0	0	296	
12	0	0	0	0	299	
13	0	0	0	0	300	
14	0	0	0	0	300	
15	0	0	0	0	302	
0	0	0	0	0	304	
1	0	0	0	0	304	
2	0	0	0	0	306	
3	0	0	0	0	307	
4	0	0	0	0	309	
5	0	0	0	0	310	
6	0	0	0	0	312	
7	0	0	0	0	317	
8	0	0	0	0	322	
9	0	0	0	0	327	
10	0	0	0	0	330	
11	0	0	0	0	334	
12	0	0	0	0	339	
13	0	0	0	0	346	
14	0	0	0	0	351	
15	0	0	0	0	356	
0	0	0	0	0	360	
1	0	0	0	0	363	
2	0	0	0	0	366	
3	0	0	0	0	370	
4	0	0	0	0	374	
5	0	0	0	0	377	
6	0	0	0	0	381	
7	0	0	0	0	384	
8	0	0	0	0	389	
9	0	0	0	0	395	
10	0	0	0	0	402	
11	0	0	0	0	408	
12	0	0	0	0	415	
13	0	0	0	0	420	
14	0	0	0	0	425	
15	0	0	0	0	430	
0	0	0	0	0	433	
1	0	0	0	0	437	
2	0	0	0	0	441	
3	0	0	0	0	447	
4	0	0	0	0	451	
5	0	0	0	0	455	
6	0	0	0	0	458	
7	0	0	0	0	461	
8	0	0	0	0	464	
9	0	0	0	0	470	
10	0	0	0	0	475	
11	0	0	0	0	477	
12	0	0	0	0	480	
13	0	0	0	0	484	
14	0	0	0	0	490	
15	0	0	0	0	496	
0	0	0	0	0	500	
1	0	0	0	0	500	
2	0	0	0	0	502	
3	0	0	0	0	507	
4	0	0	0	0	512	
5	0	0	0	0	513	
6	0	0	0	0	516	
7	0	0	0	0	518	
8	0	0	0	0	519	
9	0	0	0	0	521	
10	0	0	0	0	526	
11	0	0	0	0	531	
12	0	0	0	0	534	
13	0	0	0	0	537	
14	0	0	0	0	539	
15	0	0	0	0	540	
0	0	0	0	0	541	
1	0	0	0	0	542	
2	0	0	0	0	543	
3	0	0	0	0	546	
4	0	0	0	0	548	
5	0	0	0	0	548	
6	0	0	0	0	548	
7	0	0	0	0	549	
8	0	0	0	0	548	
9	0	0	0	0	549	
10	0	0	0	0	551	
11	0	0	0	0	551	
12	0	0	0	0	552	
13	0	0	0	0	553	
14	0	0	0	0	553	
15	0	0	0	0	553	
0	0	0	0	0	554	
1	0	0	0	0	555	
2	0	0	0	0	556	
3	0	0	0	0	556	
4	0	0	0	0	555	
5	0	0	0	0	553	
6	0	0	0	0	554	
7	0	0	0	0	555	
8	0	0	0	0	555	
9	0	0	0	0	554	
10	0	0	0	0	556	
11	0	0	0	0	558	
12	0	0	0	0	559	
13	0	0	0	0	560	
14	0	0	0	0	563	
15	0	0	0	0	566	
0	0	0	0	0	567	
1	0	0	0	0	568	
2	0	0	0	0	568	
3	0	0	0	0	566	
4	0	0	0	0	564	
5	0	0	0	0	563	
6	0	0	0	0	562	
7	0	0	0	0	560	
8	0	0	0	0	560	
9	0	0	0	0	559	
10	0	0	0	0	559	
11	0	0	0	0	559	
12	0	0	0	0	558	
13	0	0	0	0	558	
14	0	0	0	0	557	
15	0	0	0	0	558	
0	0	0	0	0	560	
1	0	0	0	0	562	
2	0	0	0	0	562	
3	0	0	0	0	563	
4	0	0	0	0	564	
5	0	0	0	0	565	
6	0	0	0	0	565	
7	0	0	0	0	565	
8	0	0	0	0	566	
9	0	0	0	0	567	
10	0	0	0	0	571	
11	0	0	0	0	574	
12	0	0	0	0	576	
13	0	0	0	0	576	
14	0	0	0	0	577	
15	0	0	0	0	580	
0	0	0	0	0	583	
1	0	0	0	0	583	
2	0	0	0	0	583	
3	0	0	0	0	585	
4	0	0	0	0	588	
5	0	0	0	0	591	
6	0	0	0	0	588	
7	0	0	0	0	587	
8	0	0	0	0	585	
9	0	0	0	0	584	
10	0	0	0	0	584	
11	0	0	0	0	584	
12	0	0	0	0	586	
13	0	0	0	0	587	
14	0	0	0	0	588	
15	0	0	0	0	587	
0	0	0	0	0	589	
1	0	0	0	0	591	
2	0	0	0	0	591	
3	0	0	0	0	591	
4	0	0	0	0	591	
5	0	0	0	0	589	
6	0	0	0	0	590	
7	0	0	0	0	588	
8	0	0	0	0	586	
9	0	0	0	0	585	
10	0	0	0	0	585	
11	0	0	0	0	584	
12	0	0	0	0	582	
13	0	0	0	0	579	
14	0	0	0	0	577	
15	0	0	0	0	575	
0	0	0	0	0	574	
1	0	0	0	0	574	
2	0	0	0	0	574	
3	0	0	0	0	572	
4	0	0	0	0	571	
5	0	0	0	0	568	
6	0	0	0	0	565	
7	0	0	0	0	561	
8	0	0	0	0	558	
9	0	0	0	0	556	
10	0	0	0	0	552	
11	0	0	0	0	547	
12	0	0	0	0	541	
13	0	0	0	0	537	
14	0	0	0	0	534	
15	0	0	0	0	532	
0	0	0	0	0	528	
1	0	0	0	0	525	
2	0	0	0	0	520	
3	0	0	0	0	517	
4	0	0	0	0	515	
5	0	0	0	0	511	
6	0	0	0	0	507	
7	0	0	0	0	504	
8	0	0	0	0	499	
9	0	0	0	0	494	
10	0	0	0	0	489	
11	0	0	0	0	483	
12	0	0	0	0	478	
13	0	0	0	0	474	
14	0	0	0	0	470	
15	0	0	0	0	463	
0	0	0	0	0	459	
1	0	0	0	0	457	
2	0	0	0	0	456	
3	0	0	0	0	455	
4	0	0	0	0	457	
5	0	0	0	0	460	
6	0	0	0	0	465	
7	0	0	0	0	473	
8	0	0	0	0	482	
9	0	0	0	0	494	
10	0	0	0	0	510	
11	0	0	0	0	530	
12	0	0	0	0	553	
13	0	0	0	0	577	
14	0	0	0	0	603	
15	0	0	0	0	629	
0	0	0	0	0	656	
1	0	0	0	0	683	
2	0	0	0	0	716	
3	0	0	0	0	753	
4	0	0	0	0	792	
5	0	0	0	0	827	
6	0	0	0	0	857	
7	0	0	0	0	879	
8	0	0	0	0	895	
9	0	0	0	0	905	
10	0	0	0	0	911	
11	0	0	0	0	915	
12	0	0	0	0	915	
13	0	0	0	0	911	
14	0	0	0	0	908	
15	0	0	0	0	905	
0	0	0	0	0	902	
1	0	0	0	0	897	
2	0	0	0	0	888	
3	0	0	0	0	878	
4	0	0	0	0	869	
5	0	0	0	0	856	
6	0	0	0	0	843	
7	0	0	0	0	827	
8	0	0	0	0	811	
9	0	0	0	0	796	
10	0	0	0	0	782	
11	0	0	0	0	770	
12	0	0	0	0	756	
13	0	0	0	0	744	
14	0	0	0	0	733	
15	0	0	0	0	720	
0	0	0	0	0	710	
1	0	0	0	0	700	
2	0	0	0	0	689	
3	0	0	0	0	678	
4	0	0	0	0	665	
5	0	0	0	0	652	
6	0	0	0	0	639	
7	0	0	0	0	626	
8	0	0	0	0	614	
9	0	0	0	0	600	
10	0	0	0	0	587	
11	0	0	0	0	575	
12	0	0	0	0	563	
13	0	0	0	0	551	
14	0	0	0	0	543	
15	0	0	0	0	533	
0	0	0	0	0	523	
1	0	0	0	0	515	
2	0	0	0	0	508	
3	0	0	0	0	499	
4	0	0	0	0	489	
5	0	0	0	0	481	
6	0	0	0	0	474	
7	0	0	0	0	468	
8	0	0	0	0	464	
9	0	0	0	0	460	
10	0	0	0	0	455	
11	0	0	0	0	450	
12	0	0	0	0	445	
13	0	0	0	0	440	
14	0	0	0	0	435	
15	0	0	0	0	429	
0	0	0	0	0	424	
1	0	0	0	0	420	
2	0	0	0	0	418	
3	0	0	0	0	415	
4	0	0	0	0	412	
5	0	0	0	0	413	
6	0	0	0	0	412	
7	0	0	0	0	409	
8	0	0	0	0	408	
9	0	0	0	0	407	
10	0	0	0	0	405	
11	0	0	0	0	402	
12	0	0	0	0	400	
13	0	0	0	0	399	
14	0	0	0	0	399	
15	0	0	0	0	396	
0	0	0	0	0	395	
1	0	0	0	0	395	
2	0	0	0	0	395	
3	0	0	0	0	393	
4	0	0	0	0	395	
5	0	0	0	0	395	
6	0	0	0	0	398	
7	0	0	0	0	396	
8	0	0	0	0	395	
9	0	0	0	0	393	
10	0	0	0	0	395	
11	0	0	0	0	394	
12	0	0	0	0	394	
13	0	0	0	0	393	
14	0	0	0	0	391	
15	0	0	0	0	389	
0	0	0	0	0	386	
1	0	0	0	0	384	
2	0	0	0	0	382	
3	0	0	0	0	381	
4	0	0	0	0	383	
5	0	0	0	0	378	
6	0	0	0	0	376	
7	0	0	0	0	374	
8	0	0	0	0	374	
9	0	0	0	0	372	
10	0	0	0	0	371	
11	0	0	0	0	369	
12	0	0	0	0	369	
13	0	0	0	0	368	
14	0	0	0	0	366	
15	0	0	0	0	363	
0	0	0	0	0	359	
1	0	0	0	0	355	
2	0	0	0	0	352	
3	0	0	0	0	349	
4	0	0	0	0	347	
5	0	0	0	0	344	
6	0	0	0	0	343	
7	0	0	0	0	341	
8	0	0	0	0	340	
9	0	0	0	0	337	
10	0	0	0	0	335	
11	0	0	0	0	332	
12	0	0	0	0	329	
13	0	0	0	0	324	
14	0	0	0	0	319	
15	0	0	0	0	315	
0	0	0	0	0	310	
1	0	0	0	0	307	
2	0	0	0	0	307	
3	0	0	0	0	305	
4	0	0	0	0	304	
5	0	0	0	0	304	
6	0	0	0	0	304	
7	0	0	0	0	303	
8	0	0	0	0	300	
9	0	0	0	0	299	
10	0	0	0	0	298	
11	0	0	0	0	298	
12	0	0	0	0	298	
13	0	0	0	0	296	
14	0	0	0	0	295	
15	0	0	0	0	293	
0	0	0	0	0	293	
1	0	0	0	0	294	
2	0	0	0	0	292	
3	0	0	0	0	290	
4	0	0	0	0	291	
5	0	0	0	0	294	
6	0	0	0	0	296	
7	0	0	0	0	298	
8	0	0	0	0	300	
9	0	0	0	0	302	
10	0	0	0	0	306	
11	0	0	0	0	308	
12	0	0	0	0	309	
13	0	0	0	0	311	
14	0	0	0	0	313	
15	0	0	0	0	316	
0	0	0	0	0	318	
1	0	0	0	0	321	
2	0	0	0	0	323	
3	0	0	0	0	327	
4	0	0	0	0	333	
5	0	0	0	0	338	
6	0	0	0	0	344	
7	0	0	0	0	351	
8	0	0	0	0	355	
9	0	0	0	0	360	
10	0	0	0	0	366	
11	0	0	0	0	373	
12	0	0	0	0	380	
13	0	0	0	0	383	
14	0	0	0	0	387	
15	0	0	0	0	393	
0	0	0	0	0	398	
1	0	0	0	0	404	
2	0	0	0	0	406	
3	0	0	0	0	410	
4	0	0	0	0	416	
5	0	0	0	0	423	
6	0	0	0	0	431	
7	0	0	0	0	436	
8	0	0	0	0	443	
9	0	0	0	0	447	
10	0	0	0	0	450	
11	0	0	0	0	455	
12	0	0	0	0	461	
13	0	0	0	0	466	
14	0	0	0	0	470	
15	0	0	0	0	474	
0	0	0	0	0	477	
1	0	0	0	0	483	
2	0	0	0	0	485	
3	0	0	0	0	486	
4	0	0	0	0	486	
5	0	0	0	0	491	
6	0	0	0	0	494	
7	0	0	0	0	496	
8	0	0	0	0	498	
9	0	0	0	0	502	
10	0	0	0	0	509	
11	0	0	0	0	514	
12	0	0	0	0	519	
13	0	0	0	0	523	
14	0	0	0	0	527	
15	0	0	0	0	531	
0	0	0	0	0	536	
1	0	0	0	0	539	
2	0	0	0	0	541	
3	0	0	0	0	541	
4	0	0	0	0	542	
5	0	0	0	0	543	
6	0	0	0	0	545	
7	0	0	0	0	545	
8	0	0	0	0	548	
9	0	0	0	0	550	
10	0	0	0	0	553	
11	0	0	0	0	556	
12	0	0	0	0	558	
13	0	0	0	0	561	
14	0	0	0	0	563	
15	0	0	0	0	562	
0	0	0	0	0	562	
1	0	0	0	0	563	
2	0	0	0	0	565	
3	0	0	0	0	570	
4	0	0	0	0	568	
5	0	0	0	0	569	
6	0	0	0	0	569	
7	0	0	0	0	570	
8	0	0	0	0	572	
9	0	0	0	0	574	
10	0	0	0	0	575	
11	0	0	0	0	576	
12	0	0	0	0	577	
13	0	0	0	0	576	
14	0	0	0	0	576	
15	0	0	0	0	575	
0	0	0	0	0	577	
1	0	0	0	0	579	
2	0	0	0	0	583	
3	0	0	0	0	585	
4	0	0	0	0	585	
5	0	0	0	0	583	
6	0	0	0	0	582	
7	0	0	0	0	582	
8	0	0	0	0	582	
9	0	0	0	0	583	
10	0	0	0	0	582	
11	0	0	0	0	583	
12	0	0	0	0	584	
13	0	0	0	0	585	
14	0	0	0	0	587	
15	0	0	0	0	590	
0	0	0	0	0	588	
1	0	0	0	0	585	
2	0	0	0	0	585	
3	0	0	0	0	584	
4	0	0	0	0	582	
5	0	0	0	0	581	
6	0	0	0	0	581	
7	0	0	0	0	580	
8	0	0	0	0	578	
9	0	0	0	0	576	
10	0	0	0	0	575	
11	0	0	0	0	575	
12	0	0	0	0	574	
13	0	0	0	0	573	
14	0	0	0	0	574	
15	0	0	0	0	575	
0	0	0	0	0	577	
1	0	0	0	0	579	
2	0	0	0	0	581	
3	0	0	0	0	583	
4	0	0	0	0	583	
5	0	0	0	0	583	
6	0	0	0	0	585	
7	0	0	0	0	585	
8	0	0	0	0	585	
9	0	0	0	0	584	
10	0	0	0	0	587	
11	0	0	0	0	590	
12	0	0	0	0	591	
13	0	0	0	0	590	
14	0	0	0	0	591	
15	0	0	0	0	595	
0	0	0	0	0	598	
1	0	0	0	0	600	
2	0	0	0	0	600	
3	0	0	0	0	599	
4	0	0	0	0	598	
5	0	0	0	0	596	
6	0	0	0	0	597	
7	0	0	0	0	598	
8	0	0	0	0	596	
9	0	0	0	0	595	
10	0	0	0	0	596	
11	0	0	0	0	596	
12	0	0	0	0	595	
13	0	0	0	0	595	
14	0	0	0	0	596	
15	0	0	0	0	595	
0	0	0	0	0	595	
1	0	0	0	0	594	
2	0	0	0	0	593	
3	0	0	0	0	592	
4	0	0	0	0	591	
5	0	0	0	0	591	
6	0	0	0	0	590	
7	0	0	0	0	590	
8	0	0	0	0	588	
9	0	0	0	0	586	
10	0	0	0	0	584	
11	0	0	0	0	584	
12	0	0	0	0	583	
13	0	0	0	0	582	
14	0	0	0	0	581	
15	0	0	0	0	580	
0	0	0	0	0	580	
1	0	0	0	0	578	
2	0	0	0	0	577	
3	0	0	0	0	573	
4	0	0	0	0	569	
5	0	0	0	0	564	
6	0	0	0	0	561	
7	0	0	0	0	557	
8	0	0	0	0	551	
9	0	0	0	0	543	
10	0	0	0	0	537	
11	0	0	0	0	533	
12	0	0	0	0	531	
13	0	0	0	0	528	
14	0	0	0	0	526	
15	0	0	0	0	525	
0	0	0	0	0	521	
1	0	0	0	0	518	
2	0	0	0	0	513	
3	0	0	0	0	507	
4	0	0	0	0	501	
5	0	0	0	0	495	
6	0	0	0	0	489	
7	0	0	0	0	483	
8	0	0	0	0	477	
9	0	0	0	0	471	
10	0	0	0	0	465	
11	0	0	0	0	459	
12	0	0	0	0	454	
13	0	0	0	0	449	
14	0	0	0	0	448	
15	0	0	0	0	447	
0	0	0	0	0	446	
1	0	0	0	0	448	
2	0	0	0	0	451	
3	0	0	0	0	456	
4	0	0	0	0	464	
5	0	0	0	0	474	
6	0	0	0	0	487	
7	0	0	0	0	502	
8	0	0	0	0	524	
9	0	0	0	0	549	
10	0	0	0	0	576	
11	0	0	0	0	605	
12	0	0	0	0	634	
13	0	0	0	0	664	
14	0	0	0	0	696	
15	0	0	0	0	729	
0	0	0	0	0	766	
1	0	0	0	0	804	
2	0	0	0	0	839	
3	0	0	0	0	871	
4	0	0	0	0	895	
5	0	0	0	0	913	
6	0	0	0	0	925	
7	0	0	0	0	933	
8	0	0	0	0	937	
9	0	0	0	0	939	
10	0	0	0	0	937	
11	0	0	0	0	934	
12	0	0	0	0	929	
13	0	0	0	0	924	
14	0	0	0	0	920	
15	0	0	0	0	912	
0	0	0	0	0	905	
1	0	0	0	0	895	
2	0	0	0	0	884	
3	0	0	0	0	870	
4	0	0	0	0	854	
5	0	0	0	0	837	
6	0	0	0	0	823	
7	0	0	0	0	809	
8	0	0	0	0	797	
9	0	0	0	0	784	
10	0	0	0	0	771	
11	0	0	0	0	758	
12	0	0	0	0	743	
13	0	0	0	0	728	
14	0	0	0	0	714	
15	0	0	0	0	702	
0	0	0	0	0	690	
1	0	0	0	0	674	
2	0	0	0	0	658	
3	0	0	0	0	642	
4	0	0	0	0	627	
5	0	0	0	0	615	
6	0	0	0	0	602	
7	0	0	0	0	588	
8	0	0	0	0	577	
9	0	0	0	0	565	
10	0	0	0	0	556	
11	0	0	0	0	547	
12	0	0	0	0	539	
13	0	0	0	0	530	
14	0	0	0	0	521	
15	0	0	0	0	511	
0	0	0	0	0	499	
1	0	0	0	0	489	
2	0	0	0	0	480	
3	0	0	0	0	472	
4	0	0	0	0	465	
5	0	0	0	0	458	
6	0	0	0	0	451	
7	0	0	0	0	444	
8	0	0	0	0	439	
9	0	0	0	0	433	
10	0	0	0	0	428	
11	0	0	0	0	423	
12	0	0	0	0	419	
13	0	0	0	0	416	
14	0	0	0	0	414	
15	0	0	0	0	411	
0	0	0	0	0	409	
1	0	0	0	0	408	
2	0	0	0	0	406	
3	0	0	0	0	404	
4	0	0	0	0	403	
5	0	0	0	0	401	
6	0	0	0	0	400	
7	0	0	0	0	400	
8	0	0	0	0	399	
9	0	0	0	0	396	
10	0	0	0	0	394	
11	0	0	0	0	391	
12	0	0	0	0	390	
13	0	0	0	0	387	
14	0	0	0	0	385	
15	0	0	0	0	385	
0	0	0	0	0	385	
1	0	0	0	0	384	
2	0	0	0	0	384	
3	0	0	0	0	384	
4	0	0	0	0	382	
5	0	0	0	0	382	
6	0	0	0	0	381	
7	0	0	0	0	380	
8	0	0	0	0	379	
9	0	0	0	0	378	
10	0	0	0	0	377	
11	0	0	0	0	376	
12	0	0	0	0	375	
13	0	0	0	0	374	
14	0	0	0	0	374	
15	0	0	0	0	374	
0	0	0	0	0	374	
1	0	0	0	0	371	
2	0	0	0	0	369	
3	0	0	0	0	368	
4	0	0	0	0	369	
5	0	0	0	0	369	
6	0	0	0	0	369	
7	0	0	0	0	366	
8	0	0	0	0	364	
9	0	0	0	0	360	
10	0	0	0	0	355	
11	0	0	0	0	353	
12	0	0	0	0	350	
13	0	0	0	0	347	
14	0	0	0	0	344	
15	0	0	0	0	342	
0	0	0	0	0	339	
1	0	0	0	0	336	
2	0	0	0	0	333	
3	0	0	0	0	330	
4	0	0	0	0	325	
5	0	0	0	0	320	
6	0	0	0	0	317	
7	0	0	0	0	313	
8	0	0	0	0	310	
9	0	0	0	0	307	
10	0	0	0	0	305	
11	0	0	0	0	303	
12	0	0	0	0	300	
13	0	0	0	0	297	
14	0	0	0	0	296	
15	0	0	0	0	293	
0	0	0	0	0	291	
1	0	0	0	0	289	
2	0	0	0	0	289	
3	0	0	0	0	289	
4	0	0	0	0	288	
5	0	0	0	0	287	
6	0	0	0	0	285	
7	0	0	0	0	284	
8	0	0	0	0	283	
9	0	0	0	0	282	
10	0	0	0	0	282	
11	0	0	0	0	280	
12	0	0	0	0	280	
13	0	0	0	0	279	
14	0	0	0	0	279	
15	0	0	0	0	279	
0	0	0	0	0	280	
1	0	0	0	0	279	
2	0	0	0	0	278	
3	0	0	0	0	280	
4	0	0	0	0	283	
5	0	0	0	0	287	
6	0	0	0	0	290	
7	0	0	0	0	294	
8	0	0	0	0	295	
9	0	0	0	0	295	
10	0	0	0	0	299	
11	0	0	0	0	303	
12	0	0	0	0	308	
13	0	0	0	0	311	
14	0	0	0	0	313	
15	0	0	0	0	316	
0	0	0	0	0	320	
1	0	0	0	0	324	
2	0	0	0	0	328	
3	0	0	0	0	333	
4	0	0	0	0	338	
5	0	0	0	0	344	
6	0	0	0	0	348	
7	0	0	0	0	349	
8	0	0	0	0	354	
9	0	0	0	0	359	
10	0	0	0	0	364	
11	0	0	0	0	371	
12	0	0	0	0	375	
13	0	0	0	0	380	
14	0	0	0	0	387	
15	0	0	0	0	392	
0	0	0	0	0	397	
1	0	0	0	0	401	
2	0	0	0	0	404	
3	0	0	0	0	408	
4	0	0	0	0	412	
5	0	0	0	0	419	
6	0	0	0	0	427	
7	0	0	0	0	432	
8	0	0	0	0	439	
9	0	0	0	0	445	
10	0	0	0	0	451	
11	0	0	0	0	455	
12	0	0	0	0	460	
13	0	0	0	0	464	
14	0	0	0	0	468	
15	0	0	0	0	471	
0	0	0	0	0	476	
1	0	0	0	0	483	
2	0	0	0	0	488	
3	0	0	0	0	492	
4	0	0	0	0	497	
5	0	0	0	0	499	
6	0	0	0	0	502	
7	0	0	0	0	507	
8	0	0	0	0	511	
9	0	0	0	0	516	
10	0	0	0	0	521	
11	0	0	0	0	523	
12	0	0	0	0	525	
13	0	0	0	0	527	
14	0	0	0	0	531	
15	0	0	0	0	536	
0	0	0	0	0	540	
1	0	0	0	0	543	
2	0	0	0	0	545	
3	0	0	0	0	546	
4	0	0	0	0	548	
5	0	0	0	0	551	
6	0	0	0	0	554	
7	0	0	0	0	558	
8	0	0	0	0	561	
9	0	0	0	0	564	
10	0	0	0	0	566	
11	0	0	0	0	570	
12	0	0	0	0	572	
13	0	0	0	0	575	
14	0	0	0	0	576	
15	0	0	0	0	577	
0	0	0	0	0	578	
1	0	0	0	0	578	
2	0	0	0	0	577	
3	0	0	0	0	574	
4	0	0	0	0	571	
5	0	0	0	0	571	
6	0	0	0	0	572	
7	0	0	0	0	573	
8	0	0	0	0	575	
9	0	0	0	0	578	
10	0	0	0	0	579	
11	0	0	0	0	578	
12	0	0	0	0	577	
13	0	0	0	0	577	
14	0	0	0	0	576	
15	0	0	0	0	574	
0	0	0	0	0	575	
1	0	0	0	0	577	
2	0	0	0	0	580	
3	0	0	0	0	580	
4	0	0	0	0	579	
5	0	0	0	0	580	
6	0	0	0	0	583	
7	0	0	0	0	586	
8	0	0	0	0	586	
9	0	0	0	0	586	
10	0	0	0	0	588	
11	0	0	0	0	591	
12	0	0	0	0	594	
13	0	0	0	0	595	
14	0	0	0	0	595	
15	0	0	0	0	595	
0	0	0	0	0	595	
1	0	0	0	0	591	
2	0	0	0	0	590	
3	0	0	0	0	588	
4	0	0	0	0	587	
5	0	0	0	0	584	
6	0	0	0	0	582	
7	0	0	0	0	579	
8	0	0	0	0	579	
9	0	0	0	0	579	
10	0	0	0	0	578	
11	0	0	0	0	578	
12	0	0	0	0	579	
13	0	0	0	0	581	
14	0	0	0	0	581	
15	0	0	0	0	582	
0	0	0	0	0	586	
1	0	0	0	0	585	
2	0	0	0	0	587	
3	0	0	0	0	587	
4	0	0	0	0	587	
5	0	0	0	0	588	
6	0	0	0	0	590	
7	0	0	0	0	592	
8	0	0	0	0	595	
9	0	0	0	0	595	
10	0	0	0	0	597	
11	0	0	0	0	600	
12	0	0	0	0	601	
13	0	0	0	0	600	
14	0	0	0	0	601	
15	0	0	0	0	603	
0	0	0	0	0	602	
1	0	0	0	0	605	
2	0	0	0	0	607	
3	0	0	0	0	605	
4	0	0	0	0	606	
5	0	0	0	0	604	
6	0	0	0	0	602	
7	0	0	0	0	601	
8	0	0	0	0	601	
9	0	0	0	0	603	
10	0	0	0	0	605	
11	0	0	0	0	608	
12	0	0	0	0	610	
13	0	0	0	0	610	
14	0	0	0	0	610	
15	0	0	0	0	608	
0	0	0	0	0	604	
1	0	0	0	0	601	
2	0	0	0	0	598	
3	0	0	0	0	597	
4	0	0	0	0	597	
5	0	0	0	0	598	
6	0	0	0	0	596	
7	0	0	0	0	594	
8	0	0	0	0	594	
9	0	0	0	0	593	
10	0	0	0	0	593	
11	0	0	0	0	592	
12	0	0	0	0	591	
13	0	0	0	0	589	
14	0	0	0	0	588	
15	0	0	0	0	585	
0	0	0	0	0	581	
1	0	0	0	0	577	
2	0	0	0	0	574	
3	0	0	0	0	573	
4	0	0	0	0	571	
5	0	0	0	0	568	
6	0	0	0	0	562	
7	0	0	0	0	559	
8	0	0	0	0	559	
9	0	0	0	0	555	
10	0	0	0	0	551	
11	0	0	0	0	550	
12	0	0	0	0	547	
13	0	0	0	0	544	
14	0	0	0	0	543	
15	0	0	0	0	539	
0	0	0	0	0	536	
1	0	0	0	0	533	
2	0	0	0	0	529	
3	0	0	0	0	522	
4	0	0	0	0	516	
5	0	0	0	0	509	
6	0	0	0	0	502	
7	0	0	0	0	495	
8	0	0	0	0	485	
9	0	0	0	0	477	
10	0	0	0	0	468	
11	0	0	0	0	460	
12	0	0	0	0	454	
13	0	0	0	0	449	
14	0	0	0	0	446	
15	0	0	0	0	442	
0	0	0	0	0	440	
1	0	0	0	0	440	
2	0	0	0	0	443	
3	0	0	0	0	449	
4	0	0	0	0	458	
5	0	0	0	0	470	
6	0	0	0	0	484	
7	0	0	0	0	499	
8	0	0	0	0	518	
9	0	0	0	0	543	
10	0	0	0	0	571	
11	0	0	0	0	598	
12	0	0	0	0	626	
13	0	0	0	0	656	
14	0	0	0	0	689	
15	0	0	0	0	722	
0	0	0	0	0	759	
1	0	0	0	0	796	
2	0	0	0	0	829	
3	0	0	0	0	853	
4	0	0	0	0	872	
5	0	0	0	0	887	
6	0	0	0	0	896	
7	0	0	0	0	899	
8	0	0	0	0	903	
9	0	0	0	0	904	
10	0	0	0	0	903	
11	0	0	0	0	899	
12	0	0	0	0	898	
13	0	0	0	0	892	
14	0	0	0	0	888	
15	0	0	0	0	881	
0	0	0	0	0	873	
1	0	0	0	0	864	
2	0	0	0	0	853	
3	0	0	0	0	843	
4	0	0	0	0	832	
5	0	0	0	0	819	
6	0	0	0	0	807	
7	0	0	0	0	795	
8	0	0	0	0	783	
9	0	0	0	0	768	
10	0	0	0	0	753	
11	0	0	0	0	739	
12	0	0	0	0	726	
13	0	0	0	0	714	
14	0	0	0	0	705	
15	0	0	0	0	696	
0	0	0	0	0	687	
1	0	0	0	0	678	
2	0	0	0	0	667	
3	0	0	0	0	655	
4	0	0	0	0	647	
5	0	0	0	0	633	
6	0	0	0	0	623	
7	0	0	0	0	609	
8	0	0	0	0	595	
9	0	0	0	0	588	
10	0	0	0	0	579	
11	0	0	0	0	565	
12	0	0	0	0	554	
13	0	0	0	0	548	
14	0	0	0	0	541	
15	0	0	0	0	532	
0	0	0	0	0	522	
1	0	0	0	0	515	
2	0	0	0	0	507	
3	0	0	0	0	501	
4	0	0	0	0	494	
5	0	0	0	0	488	
6	0	0	0	0	481	
7	0	0	0	0	475	
8	0	0	0	0	470	
9	0	0	0	0	465	
10	0	0	0	0	458	
11	0	0	0	0	448	
12	0	0	0	0	437	
13	0	0	0	0	431	
14	0	0	0	0	427	
15	0	0	0	0	424	
0	0	0	0	0	422	
1	0	0	0	0	419	
2	0	0	0	0	415	
3	0	0	0	0	413	
4	0	0	0	0	410	
5	0	0	0	0	411	
6	0	0	0	0	411	
7	0	0	0	0	410	
8	0	0	0	0	412	
9	0	0	0	0	412	
10	0	0	0	0	408	
11	0	0	0	0	405	
12	0	0	0	0	403	
13	0	0	0	0	400	
14	0	0	0	0	399	
15	0	0	0	0	396	
0	0	0	0	0	393	
1	0	0	0	0	394	
2	0	0	0	0	395	
3	0	0	0	0	392	
4	0	0	0	0	391	
5	0	0	0	0	387	
6	0	0	0	0	384	
7	0	0	0	0	381	
8	0	0	0	0	382	
9	0	0	0	0	381	
10	0	0	0	0	381	
11	0	0	0	0	379	
12	0	0	0	0	379	
13	0	0	0	0	377	
14	0	0	0	0	375	
15	0	0	0	0	371	
0	0	0	0	0	370	
1	0	0	0	0	369	
2	0	0	0	0	370	
3	0	0	0	0	368	
4	0	0	0	0	369	
5	0	0	0	0	370	
6	0	0	0	0	369	
7	0	0	0	0	367	
8	0	0	0	0	366	
9	0	0	0	0	363	
10	0	0	0	0	362	
11	0	0	0	0	359	
12	0	0	0	0	354	
13	0	0	0	0	351	
14	0	0	0	0	347	
15	0	0	0	0	347	
0	0	0	0	0	345	
1	0	0	0	0	345	
2	0	0	0	0	342	
3	0	0	0	0	340	
4	0	0	0	0	340	
5	0	0	0	0	337	
6	0	0	0	0	337	
7	0	0	0	0	335	
8	0	0	0	0	330	
9	0	0	0	0	328	
10	0	0	0	0	328	
11	0	0	0	0	326	
12	0	0	0	0	321	
13	0	0	0	0	318	
14	0	0	0	0	314	
15	0	0	0	0	313	
0	0	0	0	0	312	
1	0	0	0	0	305	
2	0	0	0	0	300	
3	0	0	0	0	299	
4	0	0	0	0	293	
5	0	0	0	0	289	
6	0	0	0	0	285	
7	0	0	0	0	282	
8	0	0	0	0	281	
9	0	0	0	0	280	
10	0	0	0	0	280	
11	0	0	0	0	279	
12	0	0	0	0	279	
13	0	0	0	0	281	
14	0	0	0	0	285	
15	0	0	0	0	289	
0	0	0	0	0	292	
1	0	0	0	0	295	
2	0	0	0	0	297	
3	0	0	0	0	298	
4	0	0	0	0	296	
5	0	0	0	0	296	
6	0	0	0	0	302	
7	0	0	0	0	307	
8	0	0	0	0	312	
9	0	0	0	0	316	
10	0	0	0	0	319	
11	0	0	0	0	321	
12	0	0	0	0	323	
13	0	0	0	0	326	
14	0	0	0	0	330	
15	0	0	0	0	333	
0	0	0	0	0	338	
1	0	0	0	0	344	
2	0	0	0	0	348	
3	0	0	0	0	352	
4	0	0	0	0	356	
5	0	0	0	0	361	
6	0	0	0	0	369	
7	0	0	0	0	375	
8	0	0	0	0	379	
9	0	0	0	0	382	
10	0	0	0	0	385	
11	0	0	0	0	390	
12	0	0	0	0	397	
13	0	0	0	0	402	
14	0	0	0	0	405	
15	0	0	0	0	404	
0	0	0	0	0	405	
1	0	0	0	0	408	
2	0	0	0	0	411	
3	0	0	0	0	415	
4	0	0	0	0	420	
5	0	0	0	0	426	
6	0	0	0	0	431	
7	0	0	0	0	439	
8	0	0	0	0	440	
9	0	0	0	0	441	
10	0	0	0	0	445	
11	0	0	0	0	451	
12	0	0	0	0	455	
13	0	0	0	0	460	
14	0	0	0	0	466	
15	0	0	0	0	470	
0	0	0	0	0	473	
1	0	0	0	0	479	
2	0	0	0	0	481	
3	0	0	0	0	487	
4	0	0	0	0	492	
5	0	0	0	0	496	
6	0	0	0	0	501	
7	0	0	0	0	504	
8	0	0	0	0	505	
9	0	0	0	0	510	
10	0	0	0	0	516	
11	0	0	0	0	520	
12	0	0	0	0	523	
13	0	0	0	0	525	
14	0	0	0	0	527	
15	0	0	0	0	526	
0	0	0	0	0	529	
1	0	0	0	0	532	
2	0	0	0	0	532	
3	0	0	0	0	533	
4	0	0	0	0	536	
5	0	0	0	0	540	
6	0	0	0	0	542	
7	0	0	0	0	545	
8	0	0	0	0	549	
9	0	0	0	0	552	
10	0	0	0	0	555	
11	0	0	0	0	559	
12	0	0	0	0	560	
13	0	0	0	0	559	
14	0	0	0	0	559	
15	0	0	0	0	559	
0	0	0	0	0	558	
1	0	0	0	0	556	
2	0	0	0	0	554	
3	0	0	0	0	551	
4	0	0	0	0	553	
5	0	0	0	0	554	
6	0	0	0	0	553	
7	0	0	0	0	553	
8	0	0	0	0	555	
9	0	0	0	0	556	
10	0	0	0	0	557	
11	0	0	0	0	556	
12	0	0	0	0	555	
13	0	0	0	0	552	
14	0	0	0	0	551	
15	0	0	0	0	551	
0	0	0	0	0	551	
1	0	0	0	0	551	
2	0	0	0	0	553	
3	0	0	0	0	555	
4	0	0	0	0	556	
5	0	0	0	0	559	
6	0	0	0	0	559	
7	0	0	0	0	559	
8	0	0	0	0	561	
9	0	0	0	0	563	
10	0	0	0	0	563	
11	0	0	0	0	563	
12	0	0	0	0	564	
13	0	0	0	0	565	
14	0	0	0	0	565	
15	0	0	0	0	566	
0	0	0	0	0	566	
1	0	0	0	0	567	
2	0	0	0	0	567	
3	0	0	0	0	568	
4	0	0	0	0	568	
5	0	0	0	0	567	
6	0	0	0	0	566	
7	0	0	0	0	564	
8	0	0	0	0	563	
9	0	0	0	0	563	
10	0	0	0	0	563	
11	0	0	0	0	564	
12	0	0	0	0	564	
13	0	0	0	0	564	
14	0	0	0	0	563	
15	0	0	0	0	563	
0	0	0	0	0	564	
1	0	0	0	0	567	
2	0	0	0	0	568	
3	0	0	0	0	568	
4	0	0	0	0	569	
5	0	0	0	0	570	
6	0	0	0	0	572	
7	0	0	0	0	573	
8	0	0	0	0	572	
9	0	0	0	0	572	
10	0	0	0	0	573	
11	0	0	0	0	574	
12	0	0	0	0	575	
13	0	0	0	0	576	
14	0	0	0	0	578	
15	0	0	0	0	579	
0	0	0	0	0	582	
1	0	0	0	0	582	
2	0	0	0	0	582	
3	0	0	0	0	583	
4	0	0	0	0	583	
5	0	0	0	0	583	
6	0	0	0	0	583	
7	0	0	0	0	583	
8	0	0	0	0	582	
9	0	0	0	0	582	
10	0	0	0	0	581	
11	0	0	0	0	581	
12	0	0	0	0	581	
13	0	0	0	0	579	
14	0	0	0	0	579	
15	0	0	0	0	577	
0	0	0	0	0	577	
1	0	0	0	0	577	
2	0	0	0	0	577	
3	0	0	0	0	576	
4	0	0	0	0	575	
5	0	0	0	0	575	
6	0	0	0	0	573	
7	0	0	0	0	573	
8	0	0	0	0	572	
9	0	0	0	0	572	
10	0	0	0	0	573	
11	0	0	0	0	573	
12	0	0	0	0	575	
13	0	0	0	0	575	
14	0	0	0	0	575	
15	0	0	0	0	574	
0	0	0	0	0	573	
1	0	0	0	0	572	
2	0	0	0	0	569	
3	0	0	0	0	566	
4	0	0	0	0	563	
5	0	0	0	0	560	
6	0	0	0	0	558	
7	0	0	0	0	555	
8	0	0	0	0	550	
9	0	0	0	0	545	
10	0	0	0	0	541	
11	0	0	0	0	537	
12	0	0	0	0	533	
13	0	0	0	0	529	
14	0	0	0	0	528	
15	0	0	0	0	527	
0	0	0	0	0	525	
1	0	0	0	0	522	
2	0	0	0	0	517	
3	0	0	0	0	511	
4	0	0	0	0	505	
5	0	0	0	0	500	
6	0	0	0	0	495	
7	0	0	0	0	489	
8	0	0	0	0	483	
9	0	0	0	0	476	
10	0	0	0	0	470	
11	0	0	0	0	465	
12	0	0	0	0	458	
13	0	0	0	0	451	
14	0	0	0	0	446	
15	0	0	0	0	440	
0	0	0	0	0	436	
1	0	0	0	0	434	
2	0	0	0	0	434	
3	0	0	0	0	437	
4	0	0	0	0	445	
5	0	0	0	0	455	
6	0	0	0	0	466	
7	0	0	0	0	480	
8	0	0	0	0	495	
9	0	0	0	0	513	
10	0	0	0	0	534	
11	0	0	0	0	558	
12	0	0	0	0	583	
13	0	0	0	0	607	
14	0	0	0	0	632	
15	0	0	0	0	659	
0	0	0	0	0	688	
1	0	0	0	0	717	
2	0	0	0	0	747	
3	0	0	0	0	774	
4	0	0	0	0	796	
5	0	0	0	0	814	
6	0	0	0	0	828	
7	0	0	0	0	836	
8	0	0	0	0	842	
9	0	0	0	0	845	
10	0	0	0	0	847	
11	0	0	0	0	847	
12	0	0	0	0	844	
13	0	0	0	0	844	
14	0	0	0	0	841	
15	0	0	0	0	838	
0	0	0	0	0	833	
1	0	0	0	0	828	
2	0	0	0	0	820	
3	0	0	0	0	812	
4	0	0	0	0	803	
5	0	0	0	0	793	
6	0	0	0	0	782	
7	0	0	0	0	771	
8	0	0	0	0	759	
9	0	0	0	0	746	
10	0	0	0	0	735	
11	0	0	0	0	723	
12	0	0	0	0	711	
13	0	0	0	0	701	
14	0	0	0	0	692	
15	0	0	0	0	683	
0	0	0	0	0	675	
1	0	0	0	0	668	
2	0	0	0	0	658	
3	0	0	0	0	650	
4	0	0	0	0	640	
5	0	0	0	0	630	
6	0	0	0	0	620	
7	0	0	0	0	611	
8	0	0	0	0	601	
9	0	0	0	0	592	
10	0	0	0	0	583	
11	0	0	0	0	573	
12	0	0	0	0	564	
13	0	0	0	0	556	
14	0	0	0	0	548	
15	0	0	0	0	540	
0	0	0	0	0	532	
1	0	0	0	0	524	
2	0	0	0	0	516	
3	0	0	0	0	509	
4	0	0	0	0	500	
5	0	0	0	0	491	
6	0	0	0	0	483	
7	0	0	0	0	474	
8	0	0	0	0	466	
9	0	0	0	0	460	
10	0	0	0	0	454	
11	0	0	0	0	448	
12	0	0	0	0	443	
13	0	0	0	0	438	
14	0	0	0	0	434	
15	0	0	0	0	430	
0	0	0	0	0	427	
1	0	0	0	0	422	
2	0	0	0	0	419	
3	0	0	0	0	416	
4	0	0	0	0	413	
5	0	0	0	0	410	
6	0	0	0	0	406	
7	0	0	0	0	403	
8	0	0	0	0	400	
9	0	0	0	0	397	
10	0	0	0	0	394	
11	0	0	0	0	392	
12	0	0	0	0	391	
13	0	0	0	0	390	
14	0	0	0	0	388	
15	0	0	0	0	387	
0	0	0	0	0	386	
1	0	0	0	0	384	
2	0	0	0	0	385	
3	0	0	0	0	384	
4	0	0	0	0	382	
5	0	0	0	0	382	
6	0	0	0	0	382	
7	0	0	0	0	382	
8	0	0	0	0	380	
9	0	0	0	0	377	
10	0	0	0	0	377	
11	0	0	0	0	375	
12	0	0	0	0	372	
13	0	0	0	0	369	
14	0	0	0	0	368	
15	0	0	0	0	368	
0	0	0	0	0	367	
1	0	0	0	0	366	
2	0	0	0	0	366	
3	0	0	0	0	366	
4	0	0	0	0	365	
5	0	0	0	0	364	
6	0	0	0	0	362	
7	0	0	0	0	360	
8	0	0	0	0	358	
9	0	0	0	0	355	
10	0	0	0	0	353	
11	0	0	0	0	352	
12	0	0	0	0	352	
13	0	0	0	0	351	
14	0	0	0	0	348	
15	0	0	0	0	347	
0	0	0	0	0	344	
1	0	0	0	0	341	
2	0	0	0	0	339	
3	0	0	0	0	337	
4	0	0	0	0	336	
5	0	0	0	0	335	
6	0	0	0	0	333	
7	0	0	0	0	331	
8	0	0	0	0	327	
9	0	0	0	0	325	
10	0	0	0	0	322	
11	0	0	0	0	318	
12	0	0	0	0	314	
13	0	0	0	0	311	
14	0	0	0	0	307	
15	0	0	0	0	303	
0	0	0	0	0	300	
1	0	0	0	0	297	
2	0	0	0	0	296	
3	0	0	0	0	295	
4	0	0	0	0	295	
5	0	0	0	0	294	
6	0	0	0	0	293	
7	0	0	0	0	292	
8	0	0	0	0	292	
9	0	0	0	0	289	
10	0	0	0	0	287	
11	0	0	0	0	284	
12	0	0	0	0	284	
13	0	0	0	0	284	
14	0	0	0	0	283	
15	0	0	0	0	283	
0	0	0	0	0	284	
1	0	0	0	0	285	
2	0	0	0	0	286	
3	0	0	0	0	286	
4	0	0	0	0	286	
5	0	0	0	0	288	
6	0	0	0	0	290	
7	0	0	0	0	291	
8	0	0	0	0	293	
9	0	0	0	0	295	
10	0	0	0	0	296	
11	0	0	0	0	297	
12	0	0	0	0	300	
13	0	0	0	0	302	
14	0	0	0	0	304	
15	0	0	0	0	307	
0	0	0	0	0	311	
1	0	0	0	0	314	
2	0	0	0	0	318	
3	0	0	0	0	323	
4	0	0	0	0	327	
5	0	0	0	0	334	
6	0	0	0	0	340	
7	0	0	0	0	343	
8	0	0	0	0	349	
9	0	0	0	0	353	
10	0	0	0	0	357	
11	0	0	0	0	361	
12	0	0	0	0	366	
13	0	0	0	0	371	
14	0	0	0	0	376	
15	0	0	0	0	379	
0	0	0	0	0	383	
1	0	0	0	0	387	
2	0	0	0	0	392	
3	0	0	0	0	398	
4	0	0	0	0	402	
5	0	0	0	0	407	
6	0	0	0	0	413	
7	0	0	0	0	418	
8	0	0	0	0	424	
9	0	0	0	0	430	
10	0	0	0	0	435	
11	0	0	0	0	440	
12	0	0	0	0	445	
13	0	0	0	0	449	
14	0	0	0	0	453	
15	0	0	0	0	456	
0	0	0	0	0	459	
1	0	0	0	0	461	
2	0	0	0	0	465	
3	0	0	0	0	470	
4	0	0	0	0	473	
5	0	0	0	0	478	
6	0	0	0	0	481	
7	0	0	0	0	485	
8	0	0	0	0	489	
9	0	0	0	0	493	
10	0	0	0	0	497	
11	0	0	0	0	500	
12	0	0	0	0	502	
13	0	0	0	0	504	
14	0	0	0	0	507	
15	0	0	0	0	508	
0	0	0	0	0	508	
1	0	0	0	0	511	
2	0	0	0	0	514	
3	0	0	0	0	517	
4	0	0	0	0	519	
5	0	0	0	0	521	
6	0	0	0	0	525	
7	0	0	0	0	528	
8	0	0	0	0	531	
9	0	0	0	0	531	
10	0	0	0	0	531	
11	0	0	0	0	532	
12	0	0	0	0	535	
13	0	0	0	0	536	
14	0	0	0	0	536	
15	0	0	0	0	537	
0	0	0	0	0	537	
1	0	0	0	0	537	
2	0	0	0	0	538	
3	0	0	0	0	536	
4	0	0	0	0	535	
5	0	0	0	0	534	
6	0	0	0	0	536	
7	0	0	0	0	537	
8	0	0	0	0	539	
9	0	0	0	0	542	
10	0	0	0	0	543	
11	0	0	0	0	542	
12	0	0	0	0	542	
13	0	0	0	0	542	
14	0	0	0	0	543	
15	0	0	0	0	544	
0	0	0	0	0	547	
1	0	0	0	0	549	
2	0	0	0	0	550	
3	0	0	0	0	550	
4	0	0	0	0	552	
5	0	0	0	0	554	
6	0	0	0	0	555	
7	0	0	0	0	556	
8	0	0	0	0	558	
9	0	0	0	0	560	
10	0	0	0	0	559	
11	0	0	0	0	558	
12	0	0	0	0	557	
13	0	0	0	0	556	
14	0	0	0	0	556	
15	0	0	0	0	557	
0	0	0	0	0	557	
1	0	0	0	0	556	
2	0	0	0	0	554	
3	0	0	0	0	552	
4	0	0	0	0	555	
5	0	0	0	0	558	
6	0	0	0	0	558	
7	0	0	0	0	555	
8	0	0	0	0	554	
9	0	0	0	0	555	
10	0	0	0	0	556	
11	0	0	0	0	557	
12	0	0	0	0	558	
13	0	0	0	0	558	
14	0	0	0	0	558	
15	0	0	0	0	560	
0	0	0	0	0	561	
1	0	0	0	0	560	
2	0	0	0	0	561	
3	0	0	0	0	561	
4	0	0	0	0	561	
5	0	0	0	0	560	
6	0	0	0	0	562	
7	0	0	0	0	565	
8	0	0	0	0	566	
9	0	0	0	0	568	
10	0	0	0	0	572	
11	0	0	0	0	575	
12	0	0	0	0	576	
13	0	0	0	0	579	
14	0	0	0	0	579	
15	0	0	0	0	580	
0	0	0	0	0	581	
1	0	0	0	0	580	
2	0	0	0	0	578	
3	0	0	0	0	577	
4	0	0	0	0	575	
5	0	0	0	0	575	
6	0	0	0	0	572	
7	0	0	0	0	571	
8	0	0	0	0	572	
9	0	0	0	0	574	
10	0	0	0	0	576	
11	0	0	0	0	578	
12	0	0	0	0	579	
13	0	0	0	0	579	
14	0	0	0	0	579	
15	0	0	0	0	578	
0	0	0	0	0	577	
1	0	0	0	0	579	
2	0	0	0	0	579	
3	0	0	0	0	575	
4	0	0	0	0	575	
5	0	0	0	0	575	
6	0	0	0	0	573	
7	0	0	0	0	574	
8	0	0	0	0	575	
9	0	0	0	0	573	
10	0	0	0	0	571	
11	0	0	0	0	570	
12	0	0	0	0	569	
13	0	0	0	0	568	
14	0	0	0	0	566	
15	0	0	0	0	564	
0	0	0	0	0	561	
1	0	0	0	0	558	
2	0	0	0	0	552	
3	0	0	0	0	548	
4	0	0	0	0	544	
5	0	0	0	0	538	
6	0	0	0	0	532	
7	0	0	0	0	527	
8	0	0	0	0	524	
9	0	0	0	0	521	
10	0	0	0	0	519	
11	0	0	0	0	518	
12	0	0	0	0	519	
13	0	0	0	0	517	
14	0	0	0	0	515	
15	0	0	0	0	513	
0	0	0	0	0	508	
1	0	0	0	0	505	
2	0	0	0	0	503	
3	0	0	0	0	500	
4	0	0	0	0	497	
5	0	0	0	0	494	
6	0	0	0	0	488	
7	0	0	0	0	482	
8	0	0	0	0	476	
9	0	0	0	0	471	
10	0	0	0	0	467	
11	0	0	0	0	464	
12	0	0	0	0	462	
13	0	0	0	0	461	
14	0	0	0	0	464	
15	0	0	0	0	466	
0	0	0	0	0	469	
1	0	0	0	0	476	
2	0	0	0	0	484	
3	0	0	0	0	495	
4	0	0	0	0	508	
5	0	0	0	0	524	
6	0	0	0	0	545	
7	0	0	0	0	568	
8	0	0	0	0	592	
9	0	0	0	0	616	
10	0	0	0	0	643	
11	0	0	0	0	671	
12	0	0	0	0	701	
13	0	0	0	0	734	
14	0	0	0	0	768	
15	0	0	0	0	800	
0	0	0	0	0	829	
1	0	0	0	0	852	
2	0	0	0	0	870	
3	0	0	0	0	884	
4	0	0	0	0	891	
5	0	0	0	0	894	
6	0	0	0	0	894	
7	0	0	0	0	892	
8	0	0	0	0	889	
9	0	0	0	0	886	
10	0	0	0	0	881	
11	0	0	0	0	876	
12	0	0	0	0	871	
13	0	0	0	0	862	
14	0	0	0	0	852	
15	0	0	0	0	841	
0	0	0	0	0	830	
1	0	0	0	0	817	
2	0	0	0	0	804	
3	0	0	0	0	793	
4	0	0	0	0	779	
5	0	0	0	0	764	
6	0	0	0	0	750	
7	0	0	0	0	736	
8	0	0	0	0	725	
9	0	0	0	0	712	
10	0	0	0	0	702	
11	0	0	0	0	691	
12	0	0	0	0	681	
13	0	0	0	0	669	
14	0	0	0	0	656	
15	0	0	0	0	643	
0	0	0	0	0	630	
1	0	0	0	0	620	
2	0	0	0	0	608	
3	0	0	0	0	596	
4	0	0	0	0	585	
5	0	0	0	0	574	
6	0	0	0	0	565	
7	0	0	0	0	554	
8	0	0	0	0	542	
9	0	0	0	0	530	
10	0	0	0	0	520	
11	0	0	0	0	512	
12	0	0	0	0	504	
13	0	0	0	0	495	
14	0	0	0	0	487	
15	0	0	0	0	479	
0	0	0	0	0	471	
1	0	0	0	0	465	
2	0	0	0	0	460	
3	0	0	0	0	453	
4	0	0	0	0	448	
5	0	0	0	0	442	
6	0	0	0	0	436	
7	0	0	0	0	431	
8	0	0	0	0	428	
9	0	0	0	0	424	
10	0	0	0	0	422	
11	0	0	0	0	420	
12	0	0	0	0	418	
13	0	0	0	0	417	
14	0	0	0	0	418	
15	0	0	0	0	417	
0	0	0	0	0	415	
1	0	0	0	0	415	
2	0	0	0	0	415	
3	0	0	0	0	413	
4	0	0	0	0	409	
5	0	0	0	0	405	
6	0	0	0	0	403	
7	0	0	0	0	400	
8	0	0	0	0	397	
9	0	0	0	0	396	
10	0	0	0	0	395	
11	0	0	0	0	395	
12	0	0	0	0	394	
13	0	0	0	0	393	
14	0	0	0	0	393	
15	0	0	0	0	393	
0	0	0	0	0	392	
1	0	0	0	0	391	
2	0	0	0	0	391	
3	0	0	0	0	390	
4	0	0	0	0	389	
5	0	0	0	0	388	
6	0	0	0	0	387	
7	0	0	0	0	388	
8	0	0	0	0	387	
9	0	0	0	0	385	
10	0	0	0	0	384	
11	0	0	0	0	381	
12	0	0	0	0	380	
13	0	0	0	0	379	
14	0	0	0	0	380	
15	0	0	0	0	382	
0	0	0	0	0	382	
1	0	0	0	0	381	
2	0	0	0	0	380	
3	0	0	0	0	380	
4	0	0	0	0	377	
5	0	0	0	0	376	
6	0	0	0	0	376	
7	0	0	0	0	374	
8	0	0	0	0	372	
9	0	0	0	0	370	
10	0	0	0	0	367	
11	0	0	0	0	364	
12	0	0	0	0	360	
13	0	0	0	0	357	
14	0	0	0	0	352	
15	0	0	0	0	349	
0	0	0	0	0	347	
1	0	0	0	0	346	
2	0	0	0	0	346	
3	0	0	0	0	343	
4	0	0	0	0	339	
5	0	0	0	0	337	
6	0	0	0	0	334	
7	0	0	0	0	331	
8	0	0	0	0	326	
9	0	0	0	0	322	
10	0	0	0	0	319	
11	0	0	0	0	316	
12	0	0	0	0	315	
13	0	0	0	0	313	
14	0	0	0	0	311	
15	0	0	0	0	307	
0	0	0	0	0	307	
1	0	0	0	0	307	
2	0	0	0	0	307	
3	0	0	0	0	307	
4	0	0	0	0	304	
5	0	0	0	0	302	
6	0	0	0	0	301	
7	0	0	0	0	300	
8	0	0	0	0	298	
9	0	0	0	0	296	
10	0	0	0	0	294	
11	0	0	0	0	295	
12	0	0	0	0	297	
13	0	0	0	0	298	
14	0	0	0	0	298	
15	0	0	0	0	300	
0	0	0	0	0	301	
1	0	0	0	0	303	
2	0	0	0	0	305	
3	0	0	0	0	307	
4	0	0	0	0	309	
5	0	0	0	0	311	
6	0	0	0	0	313	
7	0	0	0	0	318	
8	0	0	0	0	321	
9	0	0	0	0	325	
10	0	0	0	0	327	
11	0	0	0	0	329	
12	0	0	0	0	334	
13	0	0	0	0	337	
14	0	0	0	0	340	
15	0	0	0	0	345	
0	0	0	0	0	347	
1	0	0	0	0	350	
2	0	0	0	0	356	
3	0	0	0	0	362	
4	0	0	0	0	367	
5	0	0	0	0	372	
6	0	0	0	0	378	
7	0	0	0	0	383	
8	0	0	0	0	388	
9	0	0	0	0	395	
10	0	0	0	0	399	
11	0	0	0	0	400	
12	0	0	0	0	404	
13	0	0	0	0	409	
14	0	0	0	0	414	
15	0	0	0	0	419	
0	0	0	0	0	425	
1	0	0	0	0	433	
2	0	0	0	0	440	
3	0	0	0	0	448	
4	0	0	0	0	453	
5	0	0	0	0	458	
6	0	0	0	0	464	
7	0	0	0	0	468	
8	0	0	0	0	468	
9	0	0	0	0	470	
10	0	0	0	0	474	
11	0	0	0	0	478	
12	0	0	0	0	481	
13	0	0	0	0	484	
14	0	0	0	0	487	
15	0	0	0	0	491	
0	0	0	0	0	495	
1	0	0	0	0	497	
2	0	0	0	0	499	
3	0	0	0	0	503	
4	0	0	0	0	507	
5	0	0	0	0	512	
6	0	0	0	0	518	
7	0	0	0	0	521	
8	0	0	0	0	523	
9	0	0	0	0	524	
10	0	0	0	0	527	
11	0	0	0	0	530	
12	0	0	0	0	534	
13	0	0	0	0	537	
14	0	0	0	0	541	
15	0	0	0	0	544	
0	0	0	0	0	547	
1	0	0	0	0	551	
2	0	0	0	0	554	
3	0	0	0	0	555	
4	0	0	0	0	556	
5	0	0	0	0	559	
6	0	0	0	0	562	
7	0	0	0	0	563	
8	0	0	0	0	565	
9	0	0	0	0	567	
10	0	0	0	0	568	
11	0	0	0	0	569	
12	0	0	0	0	571	
13	0	0	0	0	571	
14	0	0	0	0	570	
15	0	0	0	0	571	
0	0	0	0	0	569	
1	0	0	0	0	567	
2	0	0	0	0	566	
3	0	0	0	0	565	
4	0	0	0	0	566	
5	0	0	0	0	565	
6	0	0	0	0	568	
7	0	0	0	0	570	
8	0	0	0	0	572	
9	0	0	0	0	575	
10	0	0	0	0	576	
11	0	0	0	0	577	
12	0	0	0	0	577	
13	0	0	0	0	578	
14	0	0	0	0	579	
15	0	0	0	0	579	
0	0	0	0	0	580	
1	0	0	0	0	580	
2	0	0	0	0	580	
3	0	0	0	0	581	
4	0	0	0	0	582	
5	0	0	0	0	584	
6	0	0	0	0	586	
7	0	0	0	0	588	
8	0	0	0	0	588	
9	0	0	0	0	588	
10	0	0	0	0	590	
11	0	0	0	0	590	
12	0	0	0	0	589	
13	0	0	0	0	588	
14	0	0	0	0	587	
15	0	0	0	0	584	
0	0	0	0	0	579	
1	0	0	0	0	577	
2	0	0	0	0	576	
3	0	0	0	0	574	
4	0	0	0	0	574	
5	0	0	0	0	574	
6	0	0	0	0	573	
7	0	0	0	0	574	
8	0	0	0	0	575	
9	0	0	0	0	575	
10	0	0	0	0	577	
11	0	0	0	0	579	
12	0	0	0	0	578	
13	0	0	0	0	578	
14	0	0	0	0	578	
15	0	0	0	0	579	
0	0	0	0	0	580	
1	0	0	0	0	581	
2	0	0	0	0	582	
3	0	0	0	0	583	
4	0	0	0	0	587	
5	0	0	0	0	589	
6	0	0	0	0	591	
7	0	0	0	0	593	
8	0	0	0	0	595	
9	0	0	0	0	595	
10	0	0	0	0	598	
11	0	0	0	0	599	
12	0	0	0	0	600	
13	0	0	0	0	600	
14	0	0	0	0	600	
15	0	0	0	0	600	
0	0	0	0	0	600	
1	0	0	0	0	600	
2	0	0	0	0	599	
3	0	0	0	0	598	
4	0	0	0	0	598	
5	0	0	0	0	596	
6	0	0	0	0	596	
7	0	0	0	0	596	
8	0	0	0	0	596	
9	0	0	0	0	598	
10	0	0	0	0	597	
11	0	0	0	0	596	
12	0	0	0	0	596	
13	0	0	0	0	596	
14	0	0	0	0	595	
15	0	0	0	0	595	
0	0	0	0	0	593	
1	0	0	0	0	592	
2	0	0	0	0	591	
3	0	0	0	0	590	
4	0	0	0	0	590	
5	0	0	0	0	590	
6	0	0	0	0	590	
7	0	0	0	0	590	
8	0	0	0	0	589	
9	0	0	0	0	587	
10	0	0	0	0	586	
11	0	0	0	0	586	
12	0	0	0	0	583	
13	0	0	0	0	581	
14	0	0	0	0	579	
15	0	0	0	0	575	
0	0	0	0	0	572	
1	0	0	0	0	569	
2	0	0	0	0	564	
3	0	0	0	0	559	
4	0	0	0	0	553	
5	0	0	0	0	547	
6	0	0	0	0	542	
7	0	0	0	0	537	
8	0	0	0	0	534	
9	0	0	0	0	532	
10	0	0	0	0	531	
11	0	0	0	0	529	
12	0	0	0	0	524	
13	0	0	0	0	518	
14	0	0	0	0	513	
15	0	0	0	0	508	
0	0	0	0	0	502	
1	0	0	0	0	497	
2	0	0	0	0	491	
3	0	0	0	0	486	
4	0	0	0	0	481	
5	0	0	0	0	474	
6	0	0	0	0	468	
7	0	0	0	0	463	
8	0	0	0	0	459	
9	0	0	0	0	457	
10	0	0	0	0	456	
11	0	0	0	0	457	
12	0	0	0	0	457	
13	0	0	0	0	459	
14	0	0	0	0	465	
15	0	0	0	0	476	
0	0	0	0	0	486	
1	0	0	0	0	498	
2	0	0	0	0	514	
3	0	0	0	0	536	
4	0	0	0	0	563	
5	0	0	0	0	591	
6	0	0	0	0	619	
7	0	0	0	0	647	
8	0	0	0	0	678	
9	0	0	0	0	708	
10	0	0	0	0	739	
11	0	0	0	0	775	
12	0	0	0	0	812	
13	0	0	0	0	845	
14	0	0	0	0	872	
15	0	0	0	0	895	
0	0	0	0	0	911	
1	0	0	0	0	923	
2	0	0	0	0	930	
3	0	0	0	0	935	
4	0	0	0	0	935	
5	0	0	0	0	934	
6	0	0	0	0	932	
7	0	0	0	0	929	
8	0	0	0	0	924	
9	0	0	0	0	917	
10	0	0	0	0	909	
11	0	0	0	0	900	
12	0	0	0	0	888	
13	0	0	0	0	877	
14	0	0	0	0	865	
15	0	0	0	0	850	
0	0	0	0	0	835	
1	0	0	0	0	819	
2	0	0	0	0	803	
3	0	0	0	0	791	
4	0	0	0	0	779	
5	0	0	0	0	765	
6	0	0	0	0	752	
7	0	0	0	0	737	
8	0	0	0	0	723	
9	0	0	0	0	712	
10	0	0	0	0	700	
11	0	0	0	0	687	
12	0	0	0	0	672	
13	0	0	0	0	659	
14	0	0	0	0	647	
15	0	0	0	0	633	
0	0	0	0	0	621	
1	0	0	0	0	608	
2	0	0	0	0	593	
3	0	0	0	0	579	
4	0	0	0	0	568	
5	0	0	0	0	558	
6	0	0	0	0	548	
7	0	0	0	0	539	
8	0	0	0	0	528	
9	0	0	0	0	519	
10	0	0	0	0	511	
11	0	0	0	0	502	
12	0	0	0	0	493	
13	0	0	0	0	483	
14	0	0	0	0	476	
15	0	0	0	0	469	
0	0	0	0	0	464	
1	0	0	0	0	457	
2	0	0	0	0	452	
3	0	0	0	0	447	
4	0	0	0	0	441	
5	0	0	0	0	437	
6	0	0	0	0	433	
7	0	0	0	0	430	
8	0	0	0	0	430	
9	0	0	0	0	428	
10	0	0	0	0	425	
11	0	0	0	0	422	
12	0	0	0	0	417	
13	0	0	0	0	414	
14	0	0	0	0	413	
15	0	0	0	0	411	
0	0	0	0	0	408	
1	0	0	0	0	406	
2	0	0	0	0	403	
3	0	0	0	0	400	
4	0	0	0	0	397	
5	0	0	0	0	396	
6	0	0	0	0	396	
7	0	0	0	0	395	
8	0	0	0	0	391	
9	0	0	0	0	390	
10	0	0	0	0	390	
11	0	0	0	0	391	
12	0	0	0	0	391	
13	0	0	0	0	391	
14	0	0	0	0	390	
15	0	0	0	0	390	
0	0	0	0	0	389	
1	0	0	0	0	389	
2	0	0	0	0	388	
3	0	0	0	0	387	
4	0	0	0	0	386	
5	0	0	0	0	385	
6	0	0	0	0	385	
7	0	0	0	0	382	
8	0	0	0	0	381	
9	0	0	0	0	381	
10	0	0	0	0	380	
11	0	0	0	0	376	
12	0	0	0	0	374	
13	0	0	0	0	373	
14	0	0	0	0	372	
15	0	0	0	0	371	
0	0	0	0	0	370	
1	0	0	0	0	369	
2	0	0	0	0	368	
3	0	0	0	0	367	
4	0	0	0	0	367	
5	0	0	0	0	365	
6	0	0	0	0	361	
7	0	0	0	0	359	
8	0	0	0	0	358	
9	0	0	0	0	356	
10	0	0	0	0	353	
11	0	0	0	0	351	
12	0	0	0	0	347	
13	0	0	0	0	343	
14	0	0	0	0	339	
15	0	0	0	0	335	
0	0	0	0	0	332	
1	0	0	0	0	332	
2	0	0	0	0	330	
3	0	0	0	0	327	
4	0	0	0	0	321	
5	0	0	0	0	318	
6	0	0	0	0	316	
7	0	0	0	0	310	
8	0	0	0	0	306	
9	0	0	0	0	303	
10	0	0	0	0	298	
11	0	0	0	0	295	
12	0	0	0	0	294	
13	0	0	0	0	292	
14	0	0	0	0	292	
15	0	0	0	0	293	
0	0	0	0	0	294	
1	0	0	0	0	293	
2	0	0	0	0	293	
3	0	0	0	0	293	
4	0	0	0	0	291	
5	0	0	0	0	290	
6	0	0	0	0	288	
7	0	0	0	0	289	
8	0	0	0	0	289	
9	0	0	0	0	289	
10	0	0	0	0	291	
11	0	0	0	0	292	
12	0	0	0	0	292	
13	0	0	0	0	293	
14	0	0	0	0	294	
15	0	0	0	0	295	
0	0	0	0	0	298	
1	0	0	0	0	300	
2	0	0	0	0	302	
3	0	0	0	0	305	
4	0	0	0	0	309	
5	0	0	0	0	312	
6	0	0	0	0	316	
7	0	0	0	0	318	
8	0	0	0	0	322	
9	0	0	0	0	326	
10	0	0	0	0	329	
11	0	0	0	0	331	
12	0	0	0	0	334	
13	0	0	0	0	339	
14	0	0	0	0	344	
15	0	0	0	0	348	
0	0	0	0	0	354	
1	0	0	0	0	359	
2	0	0	0	0	363	
3	0	0	0	0	368	
4	0	0	0	0	374	
5	0	0	0	0	379	
6	0	0	0	0	382	
7	0	0	0	0	387	
8	0	0	0	0	393	
9	0	0	0	0	400	
10	0	0	0	0	407	
11	0	0	0	0	414	
12	0	0	0	0	421	
13	0	0	0	0	427	
14	0	0	0	0	432	
15	0	0	0	0	436	
0	0	0	0	0	442	
1	0	0	0	0	447	
2	0	0	0	0	452	
3	0	0	0	0	458	
4	0	0	0	0	463	
5	0	0	0	0	466	
6	0	0	0	0	471	
7	0	0	0	0	476	
8	0	0	0	0	480	
9	0	0	0	0	484	
10	0	0	0	0	487	
11	0	0	0	0	491	
12	0	0	0	0	495	
13	0	0	0	0	499	
14	0	0	0	0	501	
15	0	0	0	0	506	
0	0	0	0	0	513	
1	0	0	0	0	519	
2	0	0	0	0	523	
3	0	0	0	0	525	
4	0	0	0	0	529	
5	0	0	0	0	532	
6	0	0	0	0	535	
7	0	0	0	0	541	
8	0	0	0	0	547	
9	0	0	0	0	549	
10	0	0	0	0	552	
11	0	0	0	0	556	
12	0	0	0	0	560	
13	0	0	0	0	561	
14	0	0	0	0	563	
15	0	0	0	0	564	
0	0	0	0	0	566	
1	0	0	0	0	568	
2	0	0	0	0	570	
3	0	0	0	0	573	
4	0	0	0	0	575	
5	0	0	0	0	576	
6	0	0	0	0	579	
7	0	0	0	0	582	
8	0	0	0	0	584	
9	0	0	0	0	586	
10	0	0	0	0	589	
11	0	0	0	0	592	
12	0	0	0	0	593	
13	0	0	0	0	593	
14	0	0	0	0	592	
15	0	0	0	0	592	
0	0	0	0	0	589	
1	0	0	0	0	585	
2	0	0	0	0	585	
3	0	0	0	0	588	
4	0	0	0	0	590	
5	0	0	0	0	591	
6	0	0	0	0	590	
7	0	0	0	0	592	
8	0	0	0	0	594	
9	0	0	0	0	592	
10	0	0	0	0	589	
11	0	0	0	0	588	
12	0	0	0	0	588	
13	0	0	0	0	588	
14	0	0	0	0	590	
15	0	0	0	0	591	
0	0	0	0	0	591	
1	0	0	0	0	591	
2	0	0	0	0	592	
3	0	0	0	0	591	
4	0	0	0	0	591	
5	0	0	0	0	594	
6	0	0	0	0	596	
7	0	0	0	0	598	
8	0	0	0	0	601	
9	0	0	0	0	602	
10	0	0	0	0	604	
11	0	0	0	0	603	
12	0	0	0	0	604	
13	0	0	0	0	604	
14	0	0	0	0	602	
15	0	0	0	0	600	
0	0	0	0	0	600	
1	0	0	0	0	600	
2	0	0	0	0	599	
3	0	0	0	0	597	
4	0	0	0	0	596	
5	0	0	0	0	597	
6	0	0	0	0	599	
7	0	0	0	0	599	
8	0	0	0	0	599	
9	0	0	0	0	598	
10	0	0	0	0	596	
11	0	0	0	0	596	
12	0	0	0	0	594	
13	0	0	0	0	592	
14	0	0	0	0	595	
15	0	0	0	0	594	
0	0	0	0	0	594	
1	0	0	0	0	596	
2	0	0	0	0	595	
3	0	0	0	0	595	
4	0	0	0	0	596	
5	0	0	0	0	599	
6	0	0	0	0	602	
7	0	0	0	0	604	
8	0	0	0	0	607	
9	0	0	0	0	610	
10	0	0	0	0	614	
11	0	0	0	0	616	
12	0	0	0	0	618	
13	0	0	0	0	618	
14	0	0	0	0	615	
15	0	0	0	0	611	
0	0	0	0	0	612	
1	0	0	0	0	613	
2	0	0	0	0	611	
3	0	0	0	0	609	
4	0	0	0	0	608	
5	0	0	0	0	606	
6	0	0	0	0	605	
7	0	0	0	0	607	
8	0	0	0	0	608	
9	0	0	0	0	609	
10	0	0	0	0	610	
11	0	0	0	0	608	
12	0	0	0	0	608	
13	0	0	0	0	607	
14	0	0	0	0	607	
15	0	0	0	0	606	
0	0	0	0	0	606	
1	0	0	0	0	607	
2	0	0	0	0	605	
3	0	0	0	0	601	
4	0	0	0	0	599	
5	0	0	0	0	600	
6	0	0	0	0	599	
7	0	0	0	0	599	
8	0	0	0	0	600	
9	0	0	0	0	599	
10	0	0	0	0	599	
11	0	0	0	0	600	
12	0	0	0	0	598	
13	0	0	0	0	594	
14	0	0	0	0	590	
15	0	0	0	0	588	
0	0	0	0	0	583	
1	0	0	0	0	579	
2	0	0	0	0	574	
3	0	0	0	0	571	
4	0	0	0	0	565	
5	0	0	0	0	563	
6	0	0	0	0	560	
7	0	0	0	0	556	
8	0	0	0	0	555	
9	0	0	0	0	553	
10	0	0	0	0	553	
11	0	0	0	0	550	
12	0	0	0	0	547	
13	0	0	0	0	542	
14	0	0	0	0	535	
15	0	0	0	0	527	
0	0	0	0	0	522	
1	0	0	0	0	517	
2	0	0	0	0	512	
3	0	0	0	0	508	
4	0	0	0	0	503	
5	0	0	0	0	497	
6	0	0	0	0	488	
7	0	0	0	0	479	
8	0	0	0	0	473	
9	0	0	0	0	468	
10	0	0	0	0	463	
11	0	0	0	0	457	
12	0	0	0	0	452	
13	0	0	0	0	452	
14	0	0	0	0	455	
15	0	0	0	0	462	
0	0	0	0	0	471	
1	0	0	0	0	483	
2	0	0	0	0	494	
3	0	0	0	0	505	
4	0	0	0	0	524	
5	0	0	0	0	551	
6	0	0	0	0	575	
7	0	0	0	0	601	
8	0	0	0	0	631	
9	0	0	0	0	662	
10	0	0	0	0	693	
11	0	0	0	0	725	
12	0	0	0	0	761	
13	0	0	0	0	797	
14	0	0	0	0	830	
15	0	0	0	0	855	
0	0	0	0	0	873	
1	0	0	0	0	884	
2	0	0	0	0	890	
3	0	0	0	0	895	
4	0	0	0	0	901	
5	0	0	0	0	903	
6	0	0	0	0	903	
7	0	0	0	0	900	
8	0	0	0	0	895	
9	0	0	0	0	891	
10	0	0	0	0	884	
11	0	0	0	0	878	
12	0	0	0	0	871	
13	0	0	0	0	862	
14	0	0	0	0	852	
15	0	0	0	0	842	
0	0	0	0	0	831	
1	0	0	0	0	820	
2	0	0	0	0	807	
3	0	0	0	0	793	
4	0	0	0	0	776	
5	0	0	0	0	761	
6	0	0	0	0	747	
7	0	0	0	0	736	
8	0	0	0	0	727	
9	0	0	0	0	720	
10	0	0	0	0	711	
11	0	0	0	0	701	
12	0	0	0	0	692	
13	0	0	0	0	684	
14	0	0	0	0	673	
15	0	0	0	0	664	
0	0	0	0	0	653	
1	0	0	0	0	644	
2	0	0	0	0	636	
3	0	0	0	0	627	
4	0	0	0	0	616	
5	0	0	0	0	607	
6	0	0	0	0	596	
7	0	0	0	0	585	
8	0	0	0	0	574	
9	0	0	0	0	565	
10	0	0	0	0	558	
11	0	0	0	0	548	
12	0	0	0	0	539	
13	0	0	0	0	532	
14	0	0	0	0	521	
15	0	0	0	0	511	
0	0	0	0	0	503	
1	0	0	0	0	497	
2	0	0	0	0	491	
3	0	0	0	0	484	
4	0	0	0	0	478	
5	0	0	0	0	470	
6	0	0	0	0	464	
7	0	0	0	0	457	
8	0	0	0	0	450	
9	0	0	0	0	445	
10	0	0	0	0	440	
11	0	0	0	0	437	
12	0	0	0	0	432	
13	0	0	0	0	428	
14	0	0	0	0	424	
15	0	0	0	0	420	
0	0	0	0	0	416	
1	0	0	0	0	416	
2	0	0	0	0	415	
3	0	0	0	0	410	
4	0	0	0	0	407	
5	0	0	0	0	409	
6	0	0	0	0	406	
7	0	0	0	0	403	
8	0	0	0	0	401	
9	0	0	0	0	400	
10	0	0	0	0	399	
11	0	0	0	0	400	
12	0	0	0	0	401	
13	0	0	0	0	399	
14	0	0	0	0	399	
15	0	0	0	0	400	
0	0	0	0	0	401	
1	0	0	0	0	401	
2	0	0	0	0	398	
3	0	0	0	0	393	
4	0	0	0	0	390	
5	0	0	0	0	389	
6	0	0	0	0	388	
7	0	0	0	0	387	
8	0	0	0	0	388	
9	0	0	0	0	388	
10	0	0	0	0	386	
11	0	0	0	0	385	
12	0	0	0	0	383	
13	0	0	0	0	380	
14	0	0	0	0	377	
15	0	0	0	0	376	
0	0	0	0	0	374	
1	0	0	0	0	370	
2	0	0	0	0	369	
3	0	0	0	0	368	
4	0	0	0	0	367	
5	0	0	0	0	366	
6	0	0	0	0	365	
7	0	0	0	0	361	
8	0	0	0	0	358	
9	0	0	0	0	356	
10	0	0	0	0	355	
11	0	0	0	0	354	
12	0	0	0	0	353	
13	0	0	0	0	355	
14	0	0	0	0	354	
15	0	0	0	0	353	
0	0	0	0	0	351	
1	0	0	0	0	349	
2	0	0	0	0	345	
3	0	0	0	0	343	
4	0	0	0	0	342	
5	0	0	0	0	339	
6	0	0	0	0	336	
7	0	0	0	0	333	
8	0	0	0	0	332	
9	0	0	0	0	329	
10	0	0	0	0	325	
11	0	0	0	0	322	
12	0	0	0	0	319	
13	0	0	0	0	319	
14	0	0	0	0	318	
15	0	0	0	0	315	
0	0	0	0	0	313	
1	0	0	0	0	312	
2	0	0	0	0	311	
3	0	0	0	0	310	
4	0	0	0	0	308	
5	0	0	0	0	305	
6	0	0	0	0	305	
7	0	0	0	0	305	
8	0	0	0	0	304	
9	0	0	0	0	305	
10	0	0	0	0	306	
11	0	0	0	0	307	
12	0	0	0	0	307	
13	0	0	0	0	305	
14	0	0	0	0	305	
15	0	0	0	0	306	
0	0	0	0	0	308	
1	0	0	0	0	311	
2	0	0	0	0	315	
3	0	0	0	0	319	
4	0	0	0	0	319	
5	0	0	0	0	320	
6	0	0	0	0	323	
7	0	0	0	0	325	
8	0	0	0	0	328	
9	0	0	0	0	332	
10	0	0	0	0	337	
11	0	0	0	0	340	
12	0	0	0	0	344	
13	0	0	0	0	348	
14	0	0	0	0	353	
15	0	0	0	0	357	
0	0	0	0	0	362	
1	0	0	0	0	366	
2	0	0	0	0	369	
3	0	0	0	0	375	
4	0	0	0	0	380	
5	0	0	0	0	382	
6	0	0	0	0	386	
7	0	0	0	0	388	
8	0	0	0	0	392	
9	0	0	0	0	398	
10	0	0	0	0	403	
11	0	0	0	0	408	
12	0	0	0	0	411	
13	0	0	0	0	416	
14	0	0	0	0	420	
15	0	0	0	0	426	
0	0	0	0	0	432	
1	0	0	0	0	436	
2	0	0	0	0	442	
3	0	0	0	0	448	
4	0	0	0	0	452	
5	0	0	0	0	457	
6	0	0	0	0	461	
7	0	0	0	0	465	
8	0	0	0	0	468	
9	0	0	0	0	472	
10	0	0	0	0	475	
11	0	0	0	0	477	
12	0	0	0	0	481	
13	0	0	0	0	483	
14	0	0	0	0	487	
15	0	0	0	0	490	
0	0	0	0	0	492	
1	0	0	0	0	496	
2	0	0	0	0	501	
3	0	0	0	0	504	
4	0	0	0	0	508	
5	0	0	0	0	510	
6	0	0	0	0	512	
7	0	0	0	0	514	
8	0	0	0	0	518	
9	0	0	0	0	520	
10	0	0	0	0	523	
11	0	0	0	0	525	
12	0	0	0	0	527	
13	0	0	0	0	530	
14	0	0	0	0	531	
15	0	0	0	0	534	
0	0	0	0	0	536	
1	0	0	0	0	540	
2	0	0	0	0	542	
3	0	0	0	0	544	
4	0	0	0	0	547	
5	0	0	0	0	549	
6	0	0	0	0	552	
7	0	0	0	0	555	
8	0	0	0	0	556	
9	0	0	0	0	558	
10	0	0	0	0	560	
11	0	0	0	0	560	
12	0	0	0	0	559	
13	0	0	0	0	558	
14	0	0	0	0	558	
15	0	0	0	0	557	
0	0	0	0	0	557	
1	0	0	0	0	557	
2	0	0	0	0	556	
3	0	0	0	0	556	
4	0	0	0	0	557	
5	0	0	0	0	559	
6	0	0	0	0	560	
7	0	0	0	0	561	
8	0	0	0	0	561	
9	0	0	0	0	561	
10	0	0	0	0	561	
11	0	0	0	0	561	
12	0	0	0	0	561	
13	0	0	0	0	561	
14	0	0	0	0	561	
15	0	0	0	0	560	
0	0	0	0	0	561	
1	0	0	0	0	562	
2	0	0	0	0	563	
3	0	0	0	0	565	
4	0	0	0	0	566	
5	0	0	0	0	566	
6	0	0	0	0	567	
7	0	0	0	0	568	
8	0	0	0	0	569	
9	0	0	0	0	571	
10	0	0	0	0	571	
11	0	0	0	0	571	
12	0	0	0	0	570	
13	0	0	0	0	569	
14	0	0	0	0	568	
15	0	0	0	0	568	
0	0	0	0	0	568	
1	0	0	0	0	568	
2	0	0	0	0	568	
3	0	0	0	0	568	
4	0	0	0	0	566	
5	0	0	0	0	566	
6	0	0	0	0	565	
7	0	0	0	0	564	
8	0	0	0	0	563	
9	0	0	0	0	563	
10	0	0	0	0	564	
11	0	0	0	0	565	
12	0	0	0	0	565	
13	0	0	0	0	563	
14	0	0	0	0	562	
15	0	0	0	0	563	
0	0	0	0	0	565	
1	0	0	0	0	566	
2	0	0	0	0	568	
3	0	0	0	0	568	
4	0	0	0	0	568	
5	0	0	0	0	569	
6	0	0	0	0	572	
7	0	0	0	0	575	
8	0	0	0	0	576	
9	0	0	0	0	577	
10	0	0	0	0	579	
11	0	0	0	0	579	
12	0	0	0	0	582	
13	0	0	0	0	583	
14	0	0	0	0	584	
15	0	0	0	0	584	
0	0	0	0	0	584	
1	0	0	0	0	583	
2	0	0	0	0	583	
3	0	0	0	0	582	
4	0	0	0	0	583	
5	0	0	0	0	582	
6	0	0	0	0	582	
7	0	0	0	0	581	
8	0	0	0	0	580	
9	0	0	0	0	579	
10	0	0	0	0	579	
11	0	0	0	0	579	
12	0	0	0	0	579	
13	0	0	0	0	579	
14	0	0	0	0	580	
15	0	0	0	0	579	
0	0	0	0	0	577	
1	0	0	0	0	576	
2	0	0	0	0	576	
3	0	0	0	0	576	
4	0	0	0	0	576	
5	0	0	0	0	575	
6	0	0	0	0	575	
7	0	0	0	0	575	
8	0	0	0	0	575	
9	0	0	0	0	573	
10	0	0	0	0	571	
11	0	0	0	0	571	
12	0	0	0	0	570	
13	0	0	0	0	569	
14	0	0	0	0	568	
15	0	0	0	0	567	
0	0	0	0	0	564	
1	0	0	0	0	561	
2	0	0	0	0	558	
3	0	0	0	0	556	
4	0	0	0	0	553	
5	0	0	0	0	551	
6	0	0	0	0	547	
7	0	0	0	0	544	
8	0	0	0	0	540	
9	0	0	0	0	537	
10	0	0	0	0	532	
11	0	0	0	0	528	
12	0	0	0	0	525	
13	0	0	0	0	524	
14	0	0	0	0	521	
15	0	0	0	0	518	
0	0	0	0	0	512	
1	0	0	0	0	507	
2	0	0	0	0	502	
3	0	0	0	0	497	
4	0	0	0	0	493	
5	0	0	0	0	487	
6	0	0	0	0	481	
7	0	0	0	0	476	
8	0	0	0	0	470	
9	0	0	0	0	463	
10	0	0	0	0	455	
11	0	0	0	0	449	
12	0	0	0	0	444	
13	0	0	0	0	439	
14	0	0	0	0	435	
15	0	0	0	0	433	
0	0	0	0	0	435	
1	0	0	0	0	440	
2	0	0	0	0	448	
3	0	0	0	0	456	
4	0	0	0	0	467	
5	0	0	0	0	479	
6	0	0	0	0	495	
7	0	0	0	0	515	
8	0	0	0	0	537	
9	0	0	0	0	561	
10	0	0	0	0	585	
11	0	0	0	0	611	
12	0	0	0	0	639	
13	0	0	0	0	668	
14	0	0	0	0	698	
15	0	0	0	0	731	
0	0	0	0	0	762	
1	0	0	0	0	788	
2	0	0	0	0	810	
3	0	0	0	0	826	
4	0	0	0	0	837	
5	0	0	0	0	844	
6	0	0	0	0	850	
7	0	0	0	0	853	
8	0	0	0	0	855	
9	0	0	0	0	856	
10	0	0	0	0	855	
11	0	0	0	0	852	
12	0	0	0	0	847	
13	0	0	0	0	843	
14	0	0	0	0	838	
15	0	0	0	0	828	
0	0	0	0	0	817	
1	0	0	0	0	807	
2	0	0	0	0	796	
3	0	0	0	0	783	
4	0	0	0	0	771	
5	0	0	0	0	760	
6	0	0	0	0	748	
7	0	0	0	0	737	
8	0	0	0	0	725	
9	0	0	0	0	713	
10	0	0	0	0	702	
11	0	0	0	0	692	
12	0	0	0	0	684	
13	0	0	0	0	675	
14	0	0	0	0	666	
15	0	0	0	0	656	
0	0	0	0	0	646	
1	0	0	0	0	637	
2	0	0	0	0	626	
3	0	0	0	0	615	
4	0	0	0	0	605	
5	0	0	0	0	595	
6	0	0	0	0	583	
7	0	0	0	0	574	
8	0	0	0	0	564	
9	0	0	0	0	554	
10	0	0	0	0	545	
11	0	0	0	0	537	
12	0	0	0	0	532	
13	0	0	0	0	526	
14	0	0	0	0	519	
15	0	0	0	0	511	
0	0	0	0	0	502	
1	0	0	0	0	493	
2	0	0	0	0	484	
3	0	0	0	0	476	
4	0	0	0	0	467	
5	0	0	0	0	460	
6	0	0	0	0	452	
7	0	0	0	0	446	
8	0	0	0	0	439	
9	0	0	0	0	433	
10	0	0	0	0	428	
11	0	0	0	0	423	
12	0	0	0	0	419	
13	0	0	0	0	414	
14	0	0	0	0	408	
15	0	0	0	0	403	
0	0	0	0	0	399	
1	0	0	0	0	397	
2	0	0	0	0	394	
3	0	0	0	0	391	
4	0	0	0	0	390	
5	0	0	0	0	389	
6	0	0	0	0	387	
7	0	0	0	0	383	
8	0	0	0	0	382	
9	0	0	0	0	381	
10	0	0	0	0	380	
11	0	0	0	0	378	
12	0	0	0	0	376	
13	0	0	0	0	375	
14	0	0	0	0	375	
15	0	0	0	0	374	
0	0	0	0	0	373	
1	0	0	0	0	372	
2	0	0	0	0	371	
3	0	0	0	0	370	
4	0	0	0	0	371	
5	0	0	0	0	370	
6	0	0	0	0	371	
7	0	0	0	0	370	
8	0	0	0	0	369	
9	0	0	0	0	368	
10	0	0	0	0	369	
11	0	0	0	0	367	
12	0	0	0	0	365	
13	0	0	0	0	364	
14	0	0	0	0	363	
15	0	0	0	0	361	
0	0	0	0	0	362	
1	0	0	0	0	362	
2	0	0	0	0	359	
3	0	0	0	0	358	
4	0	0	0	0	356	
5	0	0	0	0	354	
6	0	0	0	0	352	
7	0	0	0	0	351	
8	0	0	0	0	349	
