# OpenSignals Text File Format. Version 1
# {"98:D3:71:FD:62:1F": {"position": 0, "device": "bitalino_rev", "device name": "98:D3:71:FD:62:1F", "device connection": "BTH98:D3:71:FD:62:1F", "sampling rate": 1000, "resolution": [4, 1, 1, 1, 1, 10], "firmware version": 1282, "comments": "", "keywords": "", "mode": 0, "sync interval": 2, "date": "2023-4-12", "time": "11:41:7.526", "channels": [2], "sensor": ["ECGBIT"], "label": ["A2"], "column": ["nSeq", "I1", "I2", "O1", "O2", "A2"], "special": [{}], "digital IO": [0, 0, 1, 1]}}
# EndOfHeader
0	0	0	0	0	524	
1	0	0	0	0	523	
2	0	0	0	0	522	
3	0	0	0	0	523	
4	0	0	0	0	522	
5	0	0	0	0	521	
6	0	0	0	0	521	
7	0	0	0	0	522	
8	0	0	0	0	523	
9	0	0	0	0	522	
10	0	0	0	0	522	
11	0	0	0	0	522	
12	0	0	0	0	523	
13	0	0	0	0	524	
14	0	0	0	0	523	
15	0	0	0	0	523	
0	0	0	0	0	523	
1	0	0	0	0	524	
2	0	0	0	0	523	
3	0	0	0	0	522	
4	0	0	0	0	521	
5	0	0	0	0	520	
6	0	0	0	0	521	
7	0	0	0	0	521	
8	0	0	0	0	522	
9	0	0	0	0	523	
10	0	0	0	0	522	
11	0	0	0	0	521	
12	0	0	0	0	521	
13	0	0	0	0	521	
14	0	0	0	0	521	
15	0	0	0	0	521	
0	0	0	0	0	520	
1	0	0	0	0	520	
2	0	0	0	0	519	
3	0	0	0	0	519	
4	0	0	0	0	519	
5	0	0	0	0	519	
6	0	0	0	0	518	
7	0	0	0	0	518	
8	0	0	0	0	519	
9	0	0	0	0	519	
10	0	0	0	0	520	
11	0	0	0	0	520	
12	0	0	0	0	519	
13	0	0	0	0	519	
14	0	0	0	0	520	
15	0	0	0	0	519	
0	0	0	0	0	519	
1	0	0	0	0	519	
2	0	0	0	0	519	
3	0	0	0	0	518	
4	0	0	0	0	517	
5	0	0	0	0	518	
6	0	0	0	0	518	
7	0	0	0	0	519	
8	0	0	0	0	518	
9	0	0	0	0	517	
10	0	0	0	0	517	
11	0	0	0	0	518	
12	0	0	0	0	518	
13	0	0	0	0	517	
14	0	0	0	0	517	
15	0	0	0	0	518	
0	0	0	0	0	517	
1	0	0	0	0	516	
2	0	0	0	0	516	
3	0	0	0	0	515	
4	0	0	0	0	515	
5	0	0	0	0	515	
6	0	0	0	0	515	
7	0	0	0	0	514	
8	0	0	0	0	514	
9	0	0	0	0	515	
10	0	0	0	0	515	
11	0	0	0	0	515	
12	0	0	0	0	515	
13	0	0	0	0	514	
14	0	0	0	0	513	
15	0	0	0	0	511	
0	0	0	0	0	511	
1	0	0	0	0	512	
2	0	0	0	0	512	
3	0	0	0	0	513	
4	0	0	0	0	513	
5	0	0	0	0	514	
6	0	0	0	0	513	
7	0	0	0	0	514	
8	0	0	0	0	514	
9	0	0	0	0	514	
10	0	0	0	0	515	
11	0	0	0	0	517	
12	0	0	0	0	517	
13	0	0	0	0	517	
14	0	0	0	0	518	
15	0	0	0	0	518	
0	0	0	0	0	518	
1	0	0	0	0	519	
2	0	0	0	0	518	
3	0	0	0	0	516	
4	0	0	0	0	515	
5	0	0	0	0	513	
6	0	0	0	0	511	
7	0	0	0	0	511	
8	0	0	0	0	511	
9	0	0	0	0	510	
10	0	0	0	0	510	
11	0	0	0	0	509	
12	0	0	0	0	509	
13	0	0	0	0	510	
14	0	0	0	0	510	
15	0	0	0	0	512	
0	0	0	0	0	512	
1	0	0	0	0	512	
2	0	0	0	0	512	
3	0	0	0	0	512	
4	0	0	0	0	512	
5	0	0	0	0	512	
6	0	0	0	0	512	
7	0	0	0	0	510	
8	0	0	0	0	508	
9	0	0	0	0	508	
10	0	0	0	0	509	
11	0	0	0	0	510	
12	0	0	0	0	510	
13	0	0	0	0	510	
14	0	0	0	0	508	
15	0	0	0	0	508	
0	0	0	0	0	508	
1	0	0	0	0	508	
2	0	0	0	0	508	
3	0	0	0	0	507	
4	0	0	0	0	507	
5	0	0	0	0	505	
6	0	0	0	0	505	
7	0	0	0	0	506	
8	0	0	0	0	507	
9	0	0	0	0	507	
10	0	0	0	0	507	
11	0	0	0	0	508	
12	0	0	0	0	508	
13	0	0	0	0	508	
14	0	0	0	0	509	
15	0	0	0	0	509	
0	0	0	0	0	509	
1	0	0	0	0	509	
2	0	0	0	0	509	
3	0	0	0	0	508	
4	0	0	0	0	508	
5	0	0	0	0	508	
6	0	0	0	0	508	
7	0	0	0	0	507	
8	0	0	0	0	506	
9	0	0	0	0	507	
10	0	0	0	0	508	
11	0	0	0	0	508	
12	0	0	0	0	508	
13	0	0	0	0	509	
14	0	0	0	0	510	
15	0	0	0	0	509	
0	0	0	0	0	509	
1	0	0	0	0	508	
2	0	0	0	0	508	
3	0	0	0	0	508	
4	0	0	0	0	508	
5	0	0	0	0	507	
6	0	0	0	0	507	
7	0	0	0	0	507	
8	0	0	0	0	507	
9	0	0	0	0	505	
10	0	0	0	0	506	
11	0	0	0	0	507	
12	0	0	0	0	508	
13	0	0	0	0	507	
14	0	0	0	0	507	
15	0	0	0	0	507	
0	0	0	0	0	505	
1	0	0	0	0	505	
2	0	0	0	0	504	
3	0	0	0	0	505	
4	0	0	0	0	505	
5	0	0	0	0	504	
6	0	0	0	0	504	
7	0	0	0	0	503	
8	0	0	0	0	503	
9	0	0	0	0	503	
10	0	0	0	0	503	
11	0	0	0	0	504	
12	0	0	0	0	504	
13	0	0	0	0	503	
14	0	0	0	0	502	
15	0	0	0	0	503	
0	0	0	0	0	504	
1	0	0	0	0	504	
2	0	0	0	0	503	
3	0	0	0	0	503	
4	0	0	0	0	503	
5	0	0	0	0	502	
6	0	0	0	0	500	
7	0	0	0	0	500	
8	0	0	0	0	502	
9	0	0	0	0	503	
10	0	0	0	0	502	
11	0	0	0	0	504	
12	0	0	0	0	504	
13	0	0	0	0	505	
14	0	0	0	0	504	
15	0	0	0	0	504	
0	0	0	0	0	506	
1	0	0	0	0	508	
2	0	0	0	0	509	
3	0	0	0	0	509	
4	0	0	0	0	509	
5	0	0	0	0	508	
6	0	0	0	0	508	
7	0	0	0	0	507	
8	0	0	0	0	504	
9	0	0	0	0	502	
10	0	0	0	0	502	
11	0	0	0	0	502	
12	0	0	0	0	502	
13	0	0	0	0	503	
14	0	0	0	0	504	
15	0	0	0	0	504	
0	0	0	0	0	503	
1	0	0	0	0	502	
2	0	0	0	0	501	
3	0	0	0	0	501	
4	0	0	0	0	500	
5	0	0	0	0	499	
6	0	0	0	0	499	
7	0	0	0	0	498	
8	0	0	0	0	496	
9	0	0	0	0	494	
10	0	0	0	0	491	
11	0	0	0	0	490	
12	0	0	0	0	490	
13	0	0	0	0	489	
14	0	0	0	0	488	
15	0	0	0	0	487	
0	0	0	0	0	487	
1	0	0	0	0	487	
2	0	0	0	0	487	
3	0	0	0	0	486	
4	0	0	0	0	485	
5	0	0	0	0	486	
6	0	0	0	0	485	
7	0	0	0	0	484	
8	0	0	0	0	482	
9	0	0	0	0	481	
10	0	0	0	0	482	
11	0	0	0	0	480	
12	0	0	0	0	479	
13	0	0	0	0	478	
14	0	0	0	0	477	
15	0	0	0	0	477	
0	0	0	0	0	477	
1	0	0	0	0	478	
2	0	0	0	0	477	
3	0	0	0	0	477	
4	0	0	0	0	476	
5	0	0	0	0	475	
6	0	0	0	0	475	
7	0	0	0	0	476	
8	0	0	0	0	476	
9	0	0	0	0	477	
10	0	0	0	0	478	
11	0	0	0	0	478	
12	0	0	0	0	478	
13	0	0	0	0	479	
14	0	0	0	0	481	
15	0	0	0	0	481	
0	0	0	0	0	483	
1	0	0	0	0	485	
2	0	0	0	0	487	
3	0	0	0	0	490	
4	0	0	0	0	492	
5	0	0	0	0	493	
6	0	0	0	0	494	
7	0	0	0	0	496	
8	0	0	0	0	497	
9	0	0	0	0	497	
10	0	0	0	0	498	
11	0	0	0	0	500	
12	0	0	0	0	501	
13	0	0	0	0	504	
14	0	0	0	0	507	
15	0	0	0	0	510	
0	0	0	0	0	511	
1	0	0	0	0	512	
2	0	0	0	0	512	
3	0	0	0	0	514	
4	0	0	0	0	515	
5	0	0	0	0	514	
6	0	0	0	0	513	
7	0	0	0	0	512	
8	0	0	0	0	512	
9	0	0	0	0	512	
10	0	0	0	0	511	
11	0	0	0	0	511	
12	0	0	0	0	512	
13	0	0	0	0	512	
14	0	0	0	0	512	
15	0	0	0	0	512	
0	0	0	0	0	512	
1	0	0	0	0	513	
2	0	0	0	0	514	
3	0	0	0	0	515	
4	0	0	0	0	515	
5	0	0	0	0	516	
6	0	0	0	0	516	
7	0	0	0	0	517	
8	0	0	0	0	517	
9	0	0	0	0	517	
10	0	0	0	0	517	
11	0	0	0	0	516	
12	0	0	0	0	515	
13	0	0	0	0	514	
14	0	0	0	0	513	
15	0	0	0	0	514	
0	0	0	0	0	513	
1	0	0	0	0	513	
2	0	0	0	0	513	
3	0	0	0	0	515	
4	0	0	0	0	515	
5	0	0	0	0	514	
6	0	0	0	0	514	
7	0	0	0	0	513	
8	0	0	0	0	512	
9	0	0	0	0	510	
10	0	0	0	0	506	
11	0	0	0	0	501	
12	0	0	0	0	497	
13	0	0	0	0	493	
14	0	0	0	0	488	
15	0	0	0	0	483	
0	0	0	0	0	477	
1	0	0	0	0	470	
2	0	0	0	0	464	
3	0	0	0	0	457	
4	0	0	0	0	451	
5	0	0	0	0	444	
6	0	0	0	0	435	
7	0	0	0	0	427	
8	0	0	0	0	418	
9	0	0	0	0	410	
10	0	0	0	0	402	
11	0	0	0	0	394	
12	0	0	0	0	387	
13	0	0	0	0	379	
14	0	0	0	0	370	
15	0	0	0	0	361	
0	0	0	0	0	352	
1	0	0	0	0	343	
2	0	0	0	0	331	
3	0	0	0	0	319	
4	0	0	0	0	307	
5	0	0	0	0	299	
6	0	0	0	0	296	
7	0	0	0	0	296	
8	0	0	0	0	297	
9	0	0	0	0	300	
10	0	0	0	0	308	
11	0	0	0	0	318	
12	0	0	0	0	332	
13	0	0	0	0	350	
14	0	0	0	0	374	
15	0	0	0	0	398	
0	0	0	0	0	426	
1	0	0	0	0	453	
2	0	0	0	0	482	
3	0	0	0	0	511	
4	0	0	0	0	543	
5	0	0	0	0	575	
6	0	0	0	0	607	
7	0	0	0	0	637	
8	0	0	0	0	670	
9	0	0	0	0	701	
10	0	0	0	0	727	
11	0	0	0	0	750	
12	0	0	0	0	769	
13	0	0	0	0	785	
14	0	0	0	0	796	
15	0	0	0	0	804	
0	0	0	0	0	810	
1	0	0	0	0	814	
2	0	0	0	0	814	
3	0	0	0	0	813	
4	0	0	0	0	810	
5	0	0	0	0	805	
6	0	0	0	0	798	
7	0	0	0	0	789	
8	0	0	0	0	780	
9	0	0	0	0	773	
10	0	0	0	0	765	
11	0	0	0	0	756	
12	0	0	0	0	748	
13	0	0	0	0	739	
14	0	0	0	0	731	
15	0	0	0	0	723	
0	0	0	0	0	714	
1	0	0	0	0	705	
2	0	0	0	0	696	
3	0	0	0	0	688	
4	0	0	0	0	678	
5	0	0	0	0	669	
6	0	0	0	0	658	
7	0	0	0	0	647	
8	0	0	0	0	635	
9	0	0	0	0	623	
10	0	0	0	0	611	
11	0	0	0	0	599	
12	0	0	0	0	588	
13	0	0	0	0	578	
14	0	0	0	0	570	
15	0	0	0	0	563	
0	0	0	0	0	555	
1	0	0	0	0	547	
2	0	0	0	0	539	
3	0	0	0	0	531	
4	0	0	0	0	526	
5	0	0	0	0	518	
6	0	0	0	0	512	
7	0	0	0	0	507	
8	0	0	0	0	501	
9	0	0	0	0	496	
10	0	0	0	0	491	
11	0	0	0	0	487	
12	0	0	0	0	483	
13	0	0	0	0	479	
14	0	0	0	0	475	
15	0	0	0	0	471	
0	0	0	0	0	468	
1	0	0	0	0	465	
2	0	0	0	0	462	
3	0	0	0	0	458	
4	0	0	0	0	456	
5	0	0	0	0	455	
6	0	0	0	0	454	
7	0	0	0	0	454	
8	0	0	0	0	454	
9	0	0	0	0	451	
10	0	0	0	0	449	
11	0	0	0	0	448	
12	0	0	0	0	446	
13	0	0	0	0	444	
14	0	0	0	0	443	
15	0	0	0	0	443	
0	0	0	0	0	443	
1	0	0	0	0	441	
2	0	0	0	0	439	
3	0	0	0	0	439	
4	0	0	0	0	440	
5	0	0	0	0	439	
6	0	0	0	0	438	
7	0	0	0	0	439	
8	0	0	0	0	440	
9	0	0	0	0	440	
10	0	0	0	0	440	
11	0	0	0	0	440	
12	0	0	0	0	441	
13	0	0	0	0	441	
14	0	0	0	0	442	
15	0	0	0	0	441	
0	0	0	0	0	441	
1	0	0	0	0	441	
2	0	0	0	0	441	
3	0	0	0	0	441	
4	0	0	0	0	440	
5	0	0	0	0	439	
6	0	0	0	0	438	
7	0	0	0	0	438	
8	0	0	0	0	438	
9	0	0	0	0	437	
10	0	0	0	0	437	
11	0	0	0	0	437	
12	0	0	0	0	436	
13	0	0	0	0	436	
14	0	0	0	0	436	
15	0	0	0	0	436	
0	0	0	0	0	436	
1	0	0	0	0	435	
2	0	0	0	0	435	
3	0	0	0	0	435	
4	0	0	0	0	435	
5	0	0	0	0	433	
6	0	0	0	0	433	
7	0	0	0	0	433	
8	0	0	0	0	432	
9	0	0	0	0	432	
10	0	0	0	0	433	
11	0	0	0	0	431	
12	0	0	0	0	432	
13	0	0	0	0	433	
14	0	0	0	0	433	
15	0	0	0	0	433	
0	0	0	0	0	434	
1	0	0	0	0	435	
2	0	0	0	0	434	
3	0	0	0	0	433	
4	0	0	0	0	434	
5	0	0	0	0	434	
6	0	0	0	0	434	
7	0	0	0	0	434	
8	0	0	0	0	433	
9	0	0	0	0	433	
10	0	0	0	0	433	
11	0	0	0	0	433	
12	0	0	0	0	431	
13	0	0	0	0	430	
14	0	0	0	0	429	
15	0	0	0	0	429	
0	0	0	0	0	430	
1	0	0	0	0	431	
2	0	0	0	0	430	
3	0	0	0	0	429	
4	0	0	0	0	429	
5	0	0	0	0	428	
6	0	0	0	0	427	
7	0	0	0	0	427	
8	0	0	0	0	425	
9	0	0	0	0	424	
10	0	0	0	0	424	
11	0	0	0	0	425	
12	0	0	0	0	424	
13	0	0	0	0	423	
14	0	0	0	0	421	
15	0	0	0	0	420	
0	0	0	0	0	419	
1	0	0	0	0	419	
2	0	0	0	0	419	
3	0	0	0	0	417	
4	0	0	0	0	417	
5	0	0	0	0	416	
6	0	0	0	0	414	
7	0	0	0	0	413	
8	0	0	0	0	412	
9	0	0	0	0	413	
10	0	0	0	0	413	
11	0	0	0	0	413	
12	0	0	0	0	412	
13	0	0	0	0	411	
14	0	0	0	0	411	
15	0	0	0	0	409	
0	0	0	0	0	408	
1	0	0	0	0	405	
2	0	0	0	0	404	
3	0	0	0	0	403	
4	0	0	0	0	403	
5	0	0	0	0	403	
6	0	0	0	0	403	
7	0	0	0	0	401	
8	0	0	0	0	401	
9	0	0	0	0	400	
10	0	0	0	0	399	
11	0	0	0	0	398	
12	0	0	0	0	399	
13	0	0	0	0	398	
14	0	0	0	0	396	
15	0	0	0	0	395	
0	0	0	0	0	395	
1	0	0	0	0	396	
2	0	0	0	0	396	
3	0	0	0	0	396	
4	0	0	0	0	396	
5	0	0	0	0	397	
6	0	0	0	0	397	
7	0	0	0	0	398	
8	0	0	0	0	399	
9	0	0	0	0	400	
10	0	0	0	0	401	
11	0	0	0	0	401	
12	0	0	0	0	404	
13	0	0	0	0	405	
14	0	0	0	0	405	
15	0	0	0	0	405	
0	0	0	0	0	406	
1	0	0	0	0	408	
2	0	0	0	0	409	
3	0	0	0	0	409	
4	0	0	0	0	410	
5	0	0	0	0	410	
6	0	0	0	0	412	
7	0	0	0	0	413	
8	0	0	0	0	415	
9	0	0	0	0	416	
10	0	0	0	0	418	
11	0	0	0	0	420	
12	0	0	0	0	421	
13	0	0	0	0	423	
14	0	0	0	0	427	
15	0	0	0	0	427	
0	0	0	0	0	429	
1	0	0	0	0	431	
2	0	0	0	0	432	
3	0	0	0	0	435	
4	0	0	0	0	439	
5	0	0	0	0	441	
6	0	0	0	0	444	
7	0	0	0	0	447	
8	0	0	0	0	449	
9	0	0	0	0	451	
10	0	0	0	0	454	
11	0	0	0	0	457	
12	0	0	0	0	460	
13	0	0	0	0	462	
14	0	0	0	0	466	
15	0	0	0	0	469	
0	0	0	0	0	473	
1	0	0	0	0	475	
2	0	0	0	0	479	
3	0	0	0	0	483	
4	0	0	0	0	487	
5	0	0	0	0	489	
6	0	0	0	0	490	
7	0	0	0	0	491	
8	0	0	0	0	494	
9	0	0	0	0	498	
10	0	0	0	0	502	
11	0	0	0	0	504	
12	0	0	0	0	508	
13	0	0	0	0	510	
14	0	0	0	0	514	
15	0	0	0	0	517	
0	0	0	0	0	520	
1	0	0	0	0	524	
2	0	0	0	0	527	
3	0	0	0	0	530	
4	0	0	0	0	534	
5	0	0	0	0	536	
6	0	0	0	0	541	
7	0	0	0	0	544	
8	0	0	0	0	547	
9	0	0	0	0	549	
10	0	0	0	0	551	
11	0	0	0	0	553	
12	0	0	0	0	555	
13	0	0	0	0	557	
14	0	0	0	0	560	
15	0	0	0	0	563	
0	0	0	0	0	566	
1	0	0	0	0	567	
2	0	0	0	0	567	
3	0	0	0	0	570	
4	0	0	0	0	572	
5	0	0	0	0	573	
6	0	0	0	0	574	
7	0	0	0	0	575	
8	0	0	0	0	575	
9	0	0	0	0	577	
10	0	0	0	0	578	
11	0	0	0	0	577	
12	0	0	0	0	579	
13	0	0	0	0	582	
14	0	0	0	0	583	
15	0	0	0	0	584	
0	0	0	0	0	586	
1	0	0	0	0	588	
2	0	0	0	0	591	
3	0	0	0	0	591	
4	0	0	0	0	591	
5	0	0	0	0	591	
6	0	0	0	0	592	
7	0	0	0	0	592	
8	0	0	0	0	592	
9	0	0	0	0	592	
10	0	0	0	0	592	
11	0	0	0	0	592	
12	0	0	0	0	591	
13	0	0	0	0	591	
14	0	0	0	0	592	
15	0	0	0	0	591	
0	0	0	0	0	592	
1	0	0	0	0	592	
2	0	0	0	0	593	
3	0	0	0	0	593	
4	0	0	0	0	592	
5	0	0	0	0	591	
6	0	0	0	0	591	
7	0	0	0	0	592	
8	0	0	0	0	593	
9	0	0	0	0	592	
10	0	0	0	0	592	
11	0	0	0	0	590	
12	0	0	0	0	588	
13	0	0	0	0	588	
14	0	0	0	0	588	
15	0	0	0	0	588	
0	0	0	0	0	587	
1	0	0	0	0	587	
2	0	0	0	0	588	
3	0	0	0	0	588	
4	0	0	0	0	586	
5	0	0	0	0	587	
6	0	0	0	0	584	
7	0	0	0	0	581	
8	0	0	0	0	580	
9	0	0	0	0	579	
10	0	0	0	0	579	
11	0	0	0	0	577	
12	0	0	0	0	577	
13	0	0	0	0	577	
14	0	0	0	0	576	
15	0	0	0	0	575	
0	0	0	0	0	574	
1	0	0	0	0	574	
2	0	0	0	0	573	
3	0	0	0	0	573	
4	0	0	0	0	572	
5	0	0	0	0	574	
6	0	0	0	0	575	
7	0	0	0	0	574	
8	0	0	0	0	573	
9	0	0	0	0	573	
10	0	0	0	0	572	
11	0	0	0	0	571	
12	0	0	0	0	570	
13	0	0	0	0	569	
14	0	0	0	0	568	
15	0	0	0	0	568	
0	0	0	0	0	569	
1	0	0	0	0	568	
2	0	0	0	0	566	
3	0	0	0	0	563	
4	0	0	0	0	563	
5	0	0	0	0	564	
6	0	0	0	0	564	
7	0	0	0	0	564	
8	0	0	0	0	564	
9	0	0	0	0	563	
10	0	0	0	0	561	
11	0	0	0	0	560	
12	0	0	0	0	558	
13	0	0	0	0	557	
14	0	0	0	0	556	
15	0	0	0	0	555	
0	0	0	0	0	555	
1	0	0	0	0	553	
2	0	0	0	0	553	
3	0	0	0	0	554	
4	0	0	0	0	553	
5	0	0	0	0	551	
6	0	0	0	0	553	
7	0	0	0	0	553	
8	0	0	0	0	552	
9	0	0	0	0	552	
10	0	0	0	0	552	
11	0	0	0	0	551	
12	0	0	0	0	550	
13	0	0	0	0	549	
14	0	0	0	0	549	
15	0	0	0	0	549	
0	0	0	0	0	548	
1	0	0	0	0	547	
2	0	0	0	0	546	
3	0	0	0	0	547	
4	0	0	0	0	545	
5	0	0	0	0	544	
6	0	0	0	0	543	
7	0	0	0	0	542	
8	0	0	0	0	540	
9	0	0	0	0	539	
10	0	0	0	0	538	
11	0	0	0	0	538	
12	0	0	0	0	536	
13	0	0	0	0	535	
14	0	0	0	0	534	
15	0	0	0	0	534	
0	0	0	0	0	533	
1	0	0	0	0	534	
2	0	0	0	0	534	
3	0	0	0	0	534	
4	0	0	0	0	534	
5	0	0	0	0	534	
6	0	0	0	0	533	
7	0	0	0	0	534	
8	0	0	0	0	535	
9	0	0	0	0	535	
10	0	0	0	0	534	
11	0	0	0	0	533	
12	0	0	0	0	533	
13	0	0	0	0	532	
14	0	0	0	0	531	
15	0	0	0	0	529	
0	0	0	0	0	528	
1	0	0	0	0	530	
2	0	0	0	0	529	
3	0	0	0	0	529	
4	0	0	0	0	530	
5	0	0	0	0	530	
6	0	0	0	0	531	
7	0	0	0	0	530	
8	0	0	0	0	530	
9	0	0	0	0	530	
10	0	0	0	0	528	
11	0	0	0	0	526	
12	0	0	0	0	526	
13	0	0	0	0	525	
14	0	0	0	0	524	
15	0	0	0	0	523	
0	0	0	0	0	521	
1	0	0	0	0	520	
2	0	0	0	0	521	
3	0	0	0	0	520	
4	0	0	0	0	522	
5	0	0	0	0	523	
6	0	0	0	0	523	
7	0	0	0	0	524	
8	0	0	0	0	524	
9	0	0	0	0	525	
10	0	0	0	0	525	
11	0	0	0	0	525	
12	0	0	0	0	526	
13	0	0	0	0	527	
14	0	0	0	0	527	
15	0	0	0	0	526	
0	0	0	0	0	525	
1	0	0	0	0	523	
2	0	0	0	0	523	
3	0	0	0	0	524	
4	0	0	0	0	524	
5	0	0	0	0	523	
6	0	0	0	0	521	
7	0	0	0	0	521	
8	0	0	0	0	522	
9	0	0	0	0	522	
10	0	0	0	0	522	
11	0	0	0	0	523	
12	0	0	0	0	522	
13	0	0	0	0	521	
14	0	0	0	0	521	
15	0	0	0	0	520	
0	0	0	0	0	519	
1	0	0	0	0	519	
2	0	0	0	0	519	
3	0	0	0	0	519	
4	0	0	0	0	519	
5	0	0	0	0	519	
6	0	0	0	0	519	
7	0	0	0	0	519	
8	0	0	0	0	520	
9	0	0	0	0	519	
10	0	0	0	0	520	
11	0	0	0	0	522	
12	0	0	0	0	521	
13	0	0	0	0	520	
14	0	0	0	0	519	
15	0	0	0	0	519	
0	0	0	0	0	519	
1	0	0	0	0	518	
2	0	0	0	0	517	
3	0	0	0	0	516	
4	0	0	0	0	515	
5	0	0	0	0	515	
6	0	0	0	0	516	
7	0	0	0	0	515	
8	0	0	0	0	515	
9	0	0	0	0	514	
10	0	0	0	0	514	
11	0	0	0	0	514	
12	0	0	0	0	514	
13	0	0	0	0	515	
14	0	0	0	0	516	
15	0	0	0	0	517	
0	0	0	0	0	516	
1	0	0	0	0	515	
2	0	0	0	0	515	
3	0	0	0	0	515	
4	0	0	0	0	515	
5	0	0	0	0	515	
6	0	0	0	0	514	
7	0	0	0	0	513	
8	0	0	0	0	514	
9	0	0	0	0	514	
10	0	0	0	0	513	
11	0	0	0	0	514	
12	0	0	0	0	513	
13	0	0	0	0	512	
14	0	0	0	0	512	
15	0	0	0	0	513	
0	0	0	0	0	515	
1	0	0	0	0	515	
2	0	0	0	0	515	
3	0	0	0	0	514	
4	0	0	0	0	513	
5	0	0	0	0	514	
6	0	0	0	0	516	
7	0	0	0	0	518	
8	0	0	0	0	519	
9	0	0	0	0	519	
10	0	0	0	0	518	
11	0	0	0	0	517	
12	0	0	0	0	518	
13	0	0	0	0	518	
14	0	0	0	0	516	
15	0	0	0	0	515	
0	0	0	0	0	513	
1	0	0	0	0	513	
2	0	0	0	0	512	
3	0	0	0	0	512	
4	0	0	0	0	511	
5	0	0	0	0	509	
6	0	0	0	0	509	
7	0	0	0	0	510	
8	0	0	0	0	509	
9	0	0	0	0	508	
10	0	0	0	0	509	
11	0	0	0	0	511	
12	0	0	0	0	512	
13	0	0	0	0	512	
14	0	0	0	0	513	
15	0	0	0	0	513	
0	0	0	0	0	512	
1	0	0	0	0	512	
2	0	0	0	0	511	
3	0	0	0	0	511	
4	0	0	0	0	511	
5	0	0	0	0	510	
6	0	0	0	0	511	
7	0	0	0	0	512	
8	0	0	0	0	514	
9	0	0	0	0	515	
10	0	0	0	0	515	
11	0	0	0	0	515	
12	0	0	0	0	514	
13	0	0	0	0	512	
14	0	0	0	0	511	
15	0	0	0	0	509	
0	0	0	0	0	508	
1	0	0	0	0	506	
2	0	0	0	0	505	
3	0	0	0	0	504	
4	0	0	0	0	505	
5	0	0	0	0	505	
6	0	0	0	0	505	
7	0	0	0	0	505	
8	0	0	0	0	504	
9	0	0	0	0	503	
10	0	0	0	0	503	
11	0	0	0	0	502	
12	0	0	0	0	502	
13	0	0	0	0	501	
14	0	0	0	0	503	
15	0	0	0	0	505	
0	0	0	0	0	507	
1	0	0	0	0	508	
2	0	0	0	0	507	
3	0	0	0	0	507	
4	0	0	0	0	508	
5	0	0	0	0	508	
6	0	0	0	0	508	
7	0	0	0	0	507	
8	0	0	0	0	507	
9	0	0	0	0	507	
10	0	0	0	0	507	
11	0	0	0	0	507	
12	0	0	0	0	505	
13	0	0	0	0	505	
14	0	0	0	0	506	
15	0	0	0	0	508	
0	0	0	0	0	508	
1	0	0	0	0	508	
2	0	0	0	0	508	
3	0	0	0	0	507	
4	0	0	0	0	508	
5	0	0	0	0	508	
6	0	0	0	0	508	
7	0	0	0	0	507	
8	0	0	0	0	507	
9	0	0	0	0	508	
10	0	0	0	0	508	
11	0	0	0	0	507	
12	0	0	0	0	507	
13	0	0	0	0	507	
14	0	0	0	0	507	
15	0	0	0	0	507	
0	0	0	0	0	507	
1	0	0	0	0	508	
2	0	0	0	0	508	
3	0	0	0	0	507	
4	0	0	0	0	505	
5	0	0	0	0	502	
6	0	0	0	0	501	
7	0	0	0	0	500	
8	0	0	0	0	501	
9	0	0	0	0	501	
10	0	0	0	0	499	
11	0	0	0	0	498	
12	0	0	0	0	495	
13	0	0	0	0	495	
14	0	0	0	0	495	
15	0	0	0	0	494	
0	0	0	0	0	493	
1	0	0	0	0	492	
2	0	0	0	0	489	
3	0	0	0	0	487	
4	0	0	0	0	485	
5	0	0	0	0	482	
6	0	0	0	0	481	
7	0	0	0	0	482	
8	0	0	0	0	481	
9	0	0	0	0	480	
10	0	0	0	0	480	
11	0	0	0	0	481	
12	0	0	0	0	483	
13	0	0	0	0	482	
14	0	0	0	0	481	
15	0	0	0	0	482	
0	0	0	0	0	482	
1	0	0	0	0	481	
2	0	0	0	0	480	
3	0	0	0	0	480	
4	0	0	0	0	480	
5	0	0	0	0	479	
6	0	0	0	0	478	
7	0	0	0	0	479	
8	0	0	0	0	481	
9	0	0	0	0	482	
10	0	0	0	0	483	
11	0	0	0	0	485	
12	0	0	0	0	486	
13	0	0	0	0	488	
14	0	0	0	0	490	
15	0	0	0	0	490	
0	0	0	0	0	491	
1	0	0	0	0	491	
2	0	0	0	0	492	
3	0	0	0	0	493	
4	0	0	0	0	495	
5	0	0	0	0	497	
6	0	0	0	0	498	
7	0	0	0	0	497	
8	0	0	0	0	498	
9	0	0	0	0	500	
10	0	0	0	0	501	
11	0	0	0	0	501	
12	0	0	0	0	501	
13	0	0	0	0	501	
14	0	0	0	0	502	
15	0	0	0	0	504	
0	0	0	0	0	505	
1	0	0	0	0	508	
2	0	0	0	0	511	
3	0	0	0	0	512	
4	0	0	0	0	513	
5	0	0	0	0	514	
6	0	0	0	0	515	
7	0	0	0	0	515	
8	0	0	0	0	515	
9	0	0	0	0	515	
10	0	0	0	0	515	
11	0	0	0	0	515	
12	0	0	0	0	514	
13	0	0	0	0	515	
14	0	0	0	0	515	
15	0	0	0	0	514	
0	0	0	0	0	514	
1	0	0	0	0	515	
2	0	0	0	0	515	
3	0	0	0	0	516	
4	0	0	0	0	518	
5	0	0	0	0	518	
6	0	0	0	0	518	
7	0	0	0	0	518	
8	0	0	0	0	518	
9	0	0	0	0	517	
10	0	0	0	0	517	
11	0	0	0	0	515	
12	0	0	0	0	513	
13	0	0	0	0	514	
14	0	0	0	0	515	
15	0	0	0	0	513	
0	0	0	0	0	512	
1	0	0	0	0	512	
2	0	0	0	0	513	
3	0	0	0	0	512	
4	0	0	0	0	512	
5	0	0	0	0	512	
6	0	0	0	0	511	
7	0	0	0	0	509	
8	0	0	0	0	508	
9	0	0	0	0	506	
10	0	0	0	0	504	
11	0	0	0	0	502	
12	0	0	0	0	499	
13	0	0	0	0	494	
14	0	0	0	0	488	
15	0	0	0	0	483	
0	0	0	0	0	478	
1	0	0	0	0	475	
2	0	0	0	0	471	
3	0	0	0	0	465	
4	0	0	0	0	459	
5	0	0	0	0	452	
6	0	0	0	0	447	
7	0	0	0	0	440	
8	0	0	0	0	432	
9	0	0	0	0	422	
10	0	0	0	0	413	
11	0	0	0	0	404	
12	0	0	0	0	396	
13	0	0	0	0	389	
14	0	0	0	0	383	
15	0	0	0	0	376	
0	0	0	0	0	369	
1	0	0	0	0	360	
2	0	0	0	0	352	
3	0	0	0	0	341	
4	0	0	0	0	330	
5	0	0	0	0	320	
6	0	0	0	0	313	
7	0	0	0	0	311	
8	0	0	0	0	312	
9	0	0	0	0	312	
10	0	0	0	0	314	
11	0	0	0	0	318	
12	0	0	0	0	326	
13	0	0	0	0	338	
14	0	0	0	0	357	
15	0	0	0	0	381	
0	0	0	0	0	407	
1	0	0	0	0	433	
2	0	0	0	0	460	
3	0	0	0	0	487	
4	0	0	0	0	515	
5	0	0	0	0	544	
6	0	0	0	0	574	
7	0	0	0	0	604	
8	0	0	0	0	633	
9	0	0	0	0	665	
10	0	0	0	0	695	
11	0	0	0	0	719	
12	0	0	0	0	736	
13	0	0	0	0	752	
14	0	0	0	0	764	
15	0	0	0	0	774	
0	0	0	0	0	780	
1	0	0	0	0	786	
2	0	0	0	0	787	
3	0	0	0	0	787	
4	0	0	0	0	785	
5	0	0	0	0	781	
6	0	0	0	0	776	
7	0	0	0	0	774	
8	0	0	0	0	768	
9	0	0	0	0	763	
10	0	0	0	0	756	
11	0	0	0	0	751	
12	0	0	0	0	744	
13	0	0	0	0	736	
14	0	0	0	0	727	
15	0	0	0	0	716	
0	0	0	0	0	706	
1	0	0	0	0	698	
2	0	0	0	0	689	
3	0	0	0	0	682	
4	0	0	0	0	673	
5	0	0	0	0	666	
6	0	0	0	0	658	
7	0	0	0	0	649	
8	0	0	0	0	639	
9	0	0	0	0	631	
10	0	0	0	0	621	
11	0	0	0	0	612	
12	0	0	0	0	602	
13	0	0	0	0	591	
14	0	0	0	0	581	
15	0	0	0	0	572	
0	0	0	0	0	562	
1	0	0	0	0	554	
2	0	0	0	0	548	
3	0	0	0	0	541	
4	0	0	0	0	534	
5	0	0	0	0	528	
6	0	0	0	0	524	
7	0	0	0	0	519	
8	0	0	0	0	513	
9	0	0	0	0	507	
10	0	0	0	0	500	
11	0	0	0	0	493	
12	0	0	0	0	489	
13	0	0	0	0	484	
14	0	0	0	0	479	
15	0	0	0	0	476	
0	0	0	0	0	472	
1	0	0	0	0	469	
2	0	0	0	0	466	
3	0	0	0	0	463	
4	0	0	0	0	460	
5	0	0	0	0	458	
6	0	0	0	0	457	
7	0	0	0	0	455	
8	0	0	0	0	454	
9	0	0	0	0	451	
10	0	0	0	0	449	
11	0	0	0	0	448	
12	0	0	0	0	447	
13	0	0	0	0	445	
14	0	0	0	0	445	
15	0	0	0	0	444	
0	0	0	0	0	443	
1	0	0	0	0	441	
2	0	0	0	0	440	
3	0	0	0	0	439	
4	0	0	0	0	436	
5	0	0	0	0	439	
6	0	0	0	0	439	
7	0	0	0	0	440	
8	0	0	0	0	441	
9	0	0	0	0	442	
10	0	0	0	0	442	
11	0	0	0	0	441	
12	0	0	0	0	441	
13	0	0	0	0	441	
14	0	0	0	0	441	
15	0	0	0	0	440	
0	0	0	0	0	438	
1	0	0	0	0	438	
2	0	0	0	0	438	
3	0	0	0	0	438	
4	0	0	0	0	439	
5	0	0	0	0	438	
6	0	0	0	0	438	
7	0	0	0	0	437	
8	0	0	0	0	435	
9	0	0	0	0	434	
10	0	0	0	0	434	
11	0	0	0	0	435	
12	0	0	0	0	435	
13	0	0	0	0	435	
14	0	0	0	0	436	
15	0	0	0	0	436	
0	0	0	0	0	436	
1	0	0	0	0	436	
2	0	0	0	0	436	
3	0	0	0	0	436	
4	0	0	0	0	436	
5	0	0	0	0	438	
6	0	0	0	0	439	
7	0	0	0	0	440	
8	0	0	0	0	440	
9	0	0	0	0	438	
10	0	0	0	0	436	
11	0	0	0	0	436	
12	0	0	0	0	438	
13	0	0	0	0	438	
14	0	0	0	0	436	
15	0	0	0	0	435	
0	0	0	0	0	435	
1	0	0	0	0	435	
2	0	0	0	0	434	
3	0	0	0	0	433	
4	0	0	0	0	434	
5	0	0	0	0	434	
6	0	0	0	0	434	
7	0	0	0	0	433	
8	0	0	0	0	435	
9	0	0	0	0	435	
10	0	0	0	0	435	
11	0	0	0	0	436	
12	0	0	0	0	437	
13	0	0	0	0	436	
14	0	0	0	0	436	
15	0	0	0	0	436	
0	0	0	0	0	436	
1	0	0	0	0	435	
2	0	0	0	0	432	
3	0	0	0	0	429	
4	0	0	0	0	428	
5	0	0	0	0	428	
6	0	0	0	0	429	
7	0	0	0	0	428	
8	0	0	0	0	426	
9	0	0	0	0	426	
10	0	0	0	0	426	
11	0	0	0	0	425	
12	0	0	0	0	426	
13	0	0	0	0	426	
14	0	0	0	0	424	
15	0	0	0	0	422	
0	0	0	0	0	422	
1	0	0	0	0	422	
2	0	0	0	0	419	
3	0	0	0	0	417	
4	0	0	0	0	417	
5	0	0	0	0	417	
6	0	0	0	0	415	
7	0	0	0	0	414	
8	0	0	0	0	414	
9	0	0	0	0	415	
10	0	0	0	0	415	
11	0	0	0	0	414	
12	0	0	0	0	413	
13	0	0	0	0	412	
14	0	0	0	0	412	
15	0	0	0	0	412	
0	0	0	0	0	409	
1	0	0	0	0	406	
2	0	0	0	0	404	
3	0	0	0	0	403	
4	0	0	0	0	402	
5	0	0	0	0	401	
6	0	0	0	0	403	
7	0	0	0	0	401	
8	0	0	0	0	401	
9	0	0	0	0	402	
10	0	0	0	0	401	
11	0	0	0	0	400	
12	0	0	0	0	401	
13	0	0	0	0	401	
14	0	0	0	0	403	
15	0	0	0	0	403	
0	0	0	0	0	403	
1	0	0	0	0	403	
2	0	0	0	0	401	
3	0	0	0	0	401	
4	0	0	0	0	401	
5	0	0	0	0	400	
6	0	0	0	0	400	
7	0	0	0	0	399	
8	0	0	0	0	399	
9	0	0	0	0	399	
10	0	0	0	0	399	
11	0	0	0	0	400	
12	0	0	0	0	401	
13	0	0	0	0	403	
14	0	0	0	0	404	
15	0	0	0	0	405	
0	0	0	0	0	406	
1	0	0	0	0	406	
2	0	0	0	0	409	
3	0	0	0	0	412	
4	0	0	0	0	413	
5	0	0	0	0	415	
6	0	0	0	0	418	
7	0	0	0	0	420	
8	0	0	0	0	421	
9	0	0	0	0	423	
10	0	0	0	0	423	
11	0	0	0	0	423	
12	0	0	0	0	425	
13	0	0	0	0	426	
14	0	0	0	0	428	
15	0	0	0	0	429	
0	0	0	0	0	430	
1	0	0	0	0	432	
2	0	0	0	0	433	
3	0	0	0	0	435	
4	0	0	0	0	437	
5	0	0	0	0	438	
6	0	0	0	0	438	
7	0	0	0	0	438	
8	0	0	0	0	440	
9	0	0	0	0	444	
10	0	0	0	0	447	
11	0	0	0	0	451	
12	0	0	0	0	455	
13	0	0	0	0	460	
14	0	0	0	0	466	
15	0	0	0	0	469	
0	0	0	0	0	471	
1	0	0	0	0	473	
2	0	0	0	0	476	
3	0	0	0	0	480	
4	0	0	0	0	483	
5	0	0	0	0	487	
6	0	0	0	0	488	
7	0	0	0	0	490	
8	0	0	0	0	493	
9	0	0	0	0	497	
10	0	0	0	0	502	
11	0	0	0	0	507	
12	0	0	0	0	512	
13	0	0	0	0	514	
14	0	0	0	0	516	
15	0	0	0	0	519	
0	0	0	0	0	521	
1	0	0	0	0	524	
2	0	0	0	0	527	
3	0	0	0	0	530	
4	0	0	0	0	532	
5	0	0	0	0	535	
6	0	0	0	0	537	
7	0	0	0	0	539	
8	0	0	0	0	541	
9	0	0	0	0	544	
10	0	0	0	0	547	
11	0	0	0	0	551	
12	0	0	0	0	555	
13	0	0	0	0	558	
14	0	0	0	0	559	
15	0	0	0	0	561	
0	0	0	0	0	563	
1	0	0	0	0	566	
2	0	0	0	0	567	
3	0	0	0	0	569	
4	0	0	0	0	570	
5	0	0	0	0	571	
6	0	0	0	0	571	
7	0	0	0	0	572	
8	0	0	0	0	573	
9	0	0	0	0	573	
10	0	0	0	0	575	
11	0	0	0	0	576	
12	0	0	0	0	577	
13	0	0	0	0	578	
14	0	0	0	0	580	
15	0	0	0	0	582	
0	0	0	0	0	583	
1	0	0	0	0	584	
2	0	0	0	0	586	
3	0	0	0	0	588	
4	0	0	0	0	590	
5	0	0	0	0	589	
6	0	0	0	0	587	
7	0	0	0	0	585	
8	0	0	0	0	585	
9	0	0	0	0	585	
10	0	0	0	0	586	
11	0	0	0	0	585	
12	0	0	0	0	585	
13	0	0	0	0	584	
14	0	0	0	0	584	
15	0	0	0	0	584	
0	0	0	0	0	585	
1	0	0	0	0	586	
2	0	0	0	0	587	
3	0	0	0	0	588	
4	0	0	0	0	588	
5	0	0	0	0	587	
6	0	0	0	0	587	
7	0	0	0	0	588	
8	0	0	0	0	588	
9	0	0	0	0	588	
10	0	0	0	0	587	
11	0	0	0	0	587	
12	0	0	0	0	585	
13	0	0	0	0	584	
14	0	0	0	0	583	
15	0	0	0	0	581	
0	0	0	0	0	581	
1	0	0	0	0	579	
2	0	0	0	0	579	
3	0	0	0	0	579	
4	0	0	0	0	579	
5	0	0	0	0	579	
6	0	0	0	0	578	
7	0	0	0	0	579	
8	0	0	0	0	579	
9	0	0	0	0	578	
10	0	0	0	0	579	
11	0	0	0	0	577	
12	0	0	0	0	575	
13	0	0	0	0	575	
14	0	0	0	0	574	
15	0	0	0	0	575	
0	0	0	0	0	576	
1	0	0	0	0	575	
2	0	0	0	0	574	
3	0	0	0	0	572	
4	0	0	0	0	571	
5	0	0	0	0	569	
6	0	0	0	0	568	
7	0	0	0	0	567	
8	0	0	0	0	566	
9	0	0	0	0	567	
10	0	0	0	0	567	
11	0	0	0	0	567	
12	0	0	0	0	566	
13	0	0	0	0	564	
14	0	0	0	0	566	
15	0	0	0	0	567	
0	0	0	0	0	567	
1	0	0	0	0	566	
2	0	0	0	0	564	
3	0	0	0	0	563	
4	0	0	0	0	562	
5	0	0	0	0	561	
6	0	0	0	0	560	
7	0	0	0	0	558	
8	0	0	0	0	556	
9	0	0	0	0	554	
10	0	0	0	0	552	
11	0	0	0	0	552	
12	0	0	0	0	553	
13	0	0	0	0	552	
14	0	0	0	0	550	
15	0	0	0	0	550	
0	0	0	0	0	551	
1	0	0	0	0	551	
2	0	0	0	0	552	
3	0	0	0	0	553	
4	0	0	0	0	553	
5	0	0	0	0	551	
6	0	0	0	0	550	
7	0	0	0	0	550	
8	0	0	0	0	549	
9	0	0	0	0	548	
10	0	0	0	0	547	
11	0	0	0	0	548	
12	0	0	0	0	548	
13	0	0	0	0	547	
14	0	0	0	0	545	
15	0	0	0	0	544	
0	0	0	0	0	543	
1	0	0	0	0	541	
2	0	0	0	0	540	
3	0	0	0	0	540	
4	0	0	0	0	541	
5	0	0	0	0	539	
6	0	0	0	0	538	
7	0	0	0	0	538	
8	0	0	0	0	539	
9	0	0	0	0	540	
10	0	0	0	0	539	
11	0	0	0	0	537	
12	0	0	0	0	534	
13	0	0	0	0	534	
14	0	0	0	0	533	
15	0	0	0	0	532	
0	0	0	0	0	532	
1	0	0	0	0	531	
2	0	0	0	0	531	
3	0	0	0	0	531	
4	0	0	0	0	531	
5	0	0	0	0	530	
6	0	0	0	0	530	
7	0	0	0	0	530	
8	0	0	0	0	530	
9	0	0	0	0	531	
10	0	0	0	0	531	
11	0	0	0	0	530	
12	0	0	0	0	530	
13	0	0	0	0	529	
14	0	0	0	0	528	
15	0	0	0	0	526	
0	0	0	0	0	525	
1	0	0	0	0	524	
2	0	0	0	0	523	
3	0	0	0	0	523	
4	0	0	0	0	524	
5	0	0	0	0	524	
6	0	0	0	0	525	
7	0	0	0	0	525	
8	0	0	0	0	525	
9	0	0	0	0	525	
10	0	0	0	0	524	
11	0	0	0	0	524	
12	0	0	0	0	524	
13	0	0	0	0	524	
14	0	0	0	0	524	
15	0	0	0	0	526	
0	0	0	0	0	527	
1	0	0	0	0	528	
2	0	0	0	0	526	
3	0	0	0	0	523	
4	0	0	0	0	522	
5	0	0	0	0	523	
6	0	0	0	0	524	
7	0	0	0	0	524	
8	0	0	0	0	524	
9	0	0	0	0	522	
10	0	0	0	0	520	
11	0	0	0	0	519	
12	0	0	0	0	519	
13	0	0	0	0	519	
14	0	0	0	0	518	
15	0	0	0	0	517	
0	0	0	0	0	518	
1	0	0	0	0	519	
2	0	0	0	0	518	
3	0	0	0	0	518	
4	0	0	0	0	518	
5	0	0	0	0	519	
6	0	0	0	0	519	
7	0	0	0	0	521	
8	0	0	0	0	521	
9	0	0	0	0	522	
10	0	0	0	0	522	
11	0	0	0	0	520	
12	0	0	0	0	519	
13	0	0	0	0	518	
14	0	0	0	0	518	
15	0	0	0	0	517	
0	0	0	0	0	516	
1	0	0	0	0	517	
2	0	0	0	0	516	
3	0	0	0	0	515	
4	0	0	0	0	516	
5	0	0	0	0	517	
6	0	0	0	0	519	
7	0	0	0	0	519	
8	0	0	0	0	519	
9	0	0	0	0	520	
10	0	0	0	0	520	
11	0	0	0	0	520	
12	0	0	0	0	519	
13	0	0	0	0	517	
14	0	0	0	0	517	
15	0	0	0	0	516	
0	0	0	0	0	516	
1	0	0	0	0	515	
2	0	0	0	0	515	
3	0	0	0	0	516	
4	0	0	0	0	515	
5	0	0	0	0	515	
6	0	0	0	0	514	
7	0	0	0	0	513	
8	0	0	0	0	513	
9	0	0	0	0	513	
10	0	0	0	0	514	
11	0	0	0	0	515	
12	0	0	0	0	514	
13	0	0	0	0	515	
14	0	0	0	0	515	
15	0	0	0	0	515	
0	0	0	0	0	515	
1	0	0	0	0	516	
2	0	0	0	0	516	
3	0	0	0	0	516	
4	0	0	0	0	517	
5	0	0	0	0	518	
6	0	0	0	0	518	
7	0	0	0	0	516	
8	0	0	0	0	514	
9	0	0	0	0	513	
10	0	0	0	0	512	
11	0	0	0	0	512	
12	0	0	0	0	512	
13	0	0	0	0	513	
14	0	0	0	0	514	
15	0	0	0	0	513	
0	0	0	0	0	513	
1	0	0	0	0	513	
2	0	0	0	0	513	
3	0	0	0	0	513	
4	0	0	0	0	514	
5	0	0	0	0	514	
6	0	0	0	0	513	
7	0	0	0	0	513	
8	0	0	0	0	513	
9	0	0	0	0	514	
10	0	0	0	0	513	
11	0	0	0	0	513	
12	0	0	0	0	515	
13	0	0	0	0	515	
14	0	0	0	0	515	
15	0	0	0	0	514	
0	0	0	0	0	514	
1	0	0	0	0	513	
2	0	0	0	0	513	
3	0	0	0	0	512	
4	0	0	0	0	512	
5	0	0	0	0	512	
6	0	0	0	0	512	
7	0	0	0	0	512	
8	0	0	0	0	512	
9	0	0	0	0	510	
10	0	0	0	0	509	
11	0	0	0	0	508	
12	0	0	0	0	510	
13	0	0	0	0	510	
14	0	0	0	0	511	
15	0	0	0	0	510	
0	0	0	0	0	511	
1	0	0	0	0	511	
2	0	0	0	0	511	
3	0	0	0	0	511	
4	0	0	0	0	509	
5	0	0	0	0	508	
6	0	0	0	0	508	
7	0	0	0	0	508	
8	0	0	0	0	508	
9	0	0	0	0	510	
10	0	0	0	0	511	
11	0	0	0	0	511	
12	0	0	0	0	511	
13	0	0	0	0	511	
14	0	0	0	0	512	
15	0	0	0	0	513	
0	0	0	0	0	513	
1	0	0	0	0	512	
2	0	0	0	0	511	
3	0	0	0	0	511	
4	0	0	0	0	509	
5	0	0	0	0	508	
6	0	0	0	0	507	
7	0	0	0	0	507	
8	0	0	0	0	507	
9	0	0	0	0	507	
10	0	0	0	0	508	
11	0	0	0	0	508	
12	0	0	0	0	508	
13	0	0	0	0	506	
14	0	0	0	0	504	
15	0	0	0	0	504	
0	0	0	0	0	503	
1	0	0	0	0	504	
2	0	0	0	0	505	
3	0	0	0	0	507	
4	0	0	0	0	508	
5	0	0	0	0	507	
6	0	0	0	0	507	
7	0	0	0	0	508	
8	0	0	0	0	508	
9	0	0	0	0	507	
10	0	0	0	0	508	
11	0	0	0	0	508	
12	0	0	0	0	510	
13	0	0	0	0	511	
14	0	0	0	0	510	
15	0	0	0	0	508	
0	0	0	0	0	508	
1	0	0	0	0	508	
2	0	0	0	0	508	
3	0	0	0	0	507	
4	0	0	0	0	505	
5	0	0	0	0	507	
6	0	0	0	0	507	
7	0	0	0	0	505	
8	0	0	0	0	504	
9	0	0	0	0	504	
10	0	0	0	0	504	
11	0	0	0	0	506	
12	0	0	0	0	507	
13	0	0	0	0	508	
14	0	0	0	0	508	
15	0	0	0	0	508	
0	0	0	0	0	508	
1	0	0	0	0	508	
2	0	0	0	0	508	
3	0	0	0	0	506	
4	0	0	0	0	505	
5	0	0	0	0	503	
6	0	0	0	0	500	
7	0	0	0	0	497	
8	0	0	0	0	496	
9	0	0	0	0	495	
10	0	0	0	0	496	
11	0	0	0	0	496	
12	0	0	0	0	496	
13	0	0	0	0	496	
14	0	0	0	0	495	
15	0	0	0	0	494	
0	0	0	0	0	492	
1	0	0	0	0	491	
2	0	0	0	0	491	
3	0	0	0	0	490	
4	0	0	0	0	489	
5	0	0	0	0	489	
6	0	0	0	0	491	
7	0	0	0	0	490	
8	0	0	0	0	489	
9	0	0	0	0	488	
10	0	0	0	0	487	
11	0	0	0	0	484	
12	0	0	0	0	483	
13	0	0	0	0	484	
14	0	0	0	0	484	
15	0	0	0	0	483	
0	0	0	0	0	483	
1	0	0	0	0	481	
2	0	0	0	0	482	
3	0	0	0	0	482	
4	0	0	0	0	482	
5	0	0	0	0	482	
6	0	0	0	0	481	
7	0	0	0	0	480	
8	0	0	0	0	480	
9	0	0	0	0	479	
10	0	0	0	0	479	
11	0	0	0	0	480	
12	0	0	0	0	480	
13	0	0	0	0	481	
14	0	0	0	0	482	
15	0	0	0	0	485	
0	0	0	0	0	488	
1	0	0	0	0	492	
2	0	0	0	0	494	
3	0	0	0	0	495	
4	0	0	0	0	497	
5	0	0	0	0	499	
6	0	0	0	0	500	
7	0	0	0	0	501	
8	0	0	0	0	502	
9	0	0	0	0	502	
10	0	0	0	0	502	
11	0	0	0	0	503	
12	0	0	0	0	503	
13	0	0	0	0	504	
14	0	0	0	0	505	
15	0	0	0	0	508	
0	0	0	0	0	510	
1	0	0	0	0	512	
2	0	0	0	0	512	
3	0	0	0	0	514	
4	0	0	0	0	515	
5	0	0	0	0	515	
6	0	0	0	0	515	
7	0	0	0	0	514	
8	0	0	0	0	515	
9	0	0	0	0	515	
10	0	0	0	0	515	
11	0	0	0	0	514	
12	0	0	0	0	514	
13	0	0	0	0	514	
14	0	0	0	0	515	
15	0	0	0	0	517	
0	0	0	0	0	517	
1	0	0	0	0	518	
2	0	0	0	0	518	
3	0	0	0	0	518	
4	0	0	0	0	518	
5	0	0	0	0	517	
6	0	0	0	0	515	
7	0	0	0	0	515	
8	0	0	0	0	515	
9	0	0	0	0	515	
10	0	0	0	0	515	
11	0	0	0	0	515	
12	0	0	0	0	515	
13	0	0	0	0	515	
14	0	0	0	0	517	
15	0	0	0	0	518	
0	0	0	0	0	518	
1	0	0	0	0	519	
2	0	0	0	0	519	
3	0	0	0	0	518	
4	0	0	0	0	515	
5	0	0	0	0	514	
6	0	0	0	0	514	
7	0	0	0	0	513	
8	0	0	0	0	512	
9	0	0	0	0	511	
10	0	0	0	0	508	
11	0	0	0	0	505	
12	0	0	0	0	503	
13	0	0	0	0	499	
14	0	0	0	0	495	
15	0	0	0	0	491	
0	0	0	0	0	486	
1	0	0	0	0	480	
2	0	0	0	0	474	
3	0	0	0	0	469	
4	0	0	0	0	463	
5	0	0	0	0	457	
6	0	0	0	0	449	
7	0	0	0	0	439	
8	0	0	0	0	428	
9	0	0	0	0	419	
10	0	0	0	0	412	
11	0	0	0	0	405	
12	0	0	0	0	398	
13	0	0	0	0	394	
14	0	0	0	0	389	
15	0	0	0	0	382	
0	0	0	0	0	374	
1	0	0	0	0	366	
2	0	0	0	0	358	
3	0	0	0	0	350	
4	0	0	0	0	341	
5	0	0	0	0	335	
6	0	0	0	0	328	
7	0	0	0	0	324	
8	0	0	0	0	323	
9	0	0	0	0	323	
10	0	0	0	0	326	
11	0	0	0	0	333	
12	0	0	0	0	342	
13	0	0	0	0	353	
14	0	0	0	0	370	
15	0	0	0	0	390	
0	0	0	0	0	412	
1	0	0	0	0	436	
2	0	0	0	0	459	
3	0	0	0	0	484	
4	0	0	0	0	508	
5	0	0	0	0	535	
6	0	0	0	0	562	
7	0	0	0	0	591	
8	0	0	0	0	621	
9	0	0	0	0	651	
10	0	0	0	0	679	
11	0	0	0	0	704	
12	0	0	0	0	725	
13	0	0	0	0	742	
14	0	0	0	0	752	
15	0	0	0	0	761	
0	0	0	0	0	767	
1	0	0	0	0	771	
2	0	0	0	0	775	
3	0	0	0	0	776	
4	0	0	0	0	775	
5	0	0	0	0	772	
6	0	0	0	0	769	
7	0	0	0	0	766	
8	0	0	0	0	759	
9	0	0	0	0	752	
10	0	0	0	0	744	
11	0	0	0	0	736	
12	0	0	0	0	728	
13	0	0	0	0	719	
14	0	0	0	0	710	
15	0	0	0	0	700	
0	0	0	0	0	693	
1	0	0	0	0	688	
2	0	0	0	0	681	
3	0	0	0	0	675	
4	0	0	0	0	668	
5	0	0	0	0	659	
6	0	0	0	0	652	
7	0	0	0	0	643	
8	0	0	0	0	635	
9	0	0	0	0	625	
10	0	0	0	0	615	
11	0	0	0	0	603	
12	0	0	0	0	592	
13	0	0	0	0	582	
14	0	0	0	0	572	
15	0	0	0	0	564	
0	0	0	0	0	559	
1	0	0	0	0	553	
2	0	0	0	0	545	
3	0	0	0	0	537	
4	0	0	0	0	530	
5	0	0	0	0	524	
6	0	0	0	0	519	
7	0	0	0	0	513	
8	0	0	0	0	508	
9	0	0	0	0	504	
10	0	0	0	0	499	
11	0	0	0	0	495	
12	0	0	0	0	491	
13	0	0	0	0	487	
14	0	0	0	0	482	
15	0	0	0	0	478	
0	0	0	0	0	474	
1	0	0	0	0	470	
2	0	0	0	0	469	
3	0	0	0	0	468	
4	0	0	0	0	466	
5	0	0	0	0	465	
6	0	0	0	0	464	
7	0	0	0	0	462	
8	0	0	0	0	459	
9	0	0	0	0	456	
10	0	0	0	0	455	
11	0	0	0	0	453	
12	0	0	0	0	451	
13	0	0	0	0	449	
14	0	0	0	0	448	
15	0	0	0	0	446	
0	0	0	0	0	445	
1	0	0	0	0	444	
2	0	0	0	0	443	
3	0	0	0	0	443	
4	0	0	0	0	443	
5	0	0	0	0	443	
6	0	0	0	0	443	
7	0	0	0	0	444	
8	0	0	0	0	444	
9	0	0	0	0	443	
10	0	0	0	0	444	
11	0	0	0	0	445	
12	0	0	0	0	445	
13	0	0	0	0	444	
14	0	0	0	0	445	
15	0	0	0	0	446	
0	0	0	0	0	444	
1	0	0	0	0	442	
2	0	0	0	0	441	
3	0	0	0	0	440	
4	0	0	0	0	440	
5	0	0	0	0	440	
6	0	0	0	0	440	
7	0	0	0	0	442	
8	0	0	0	0	443	
9	0	0	0	0	444	
10	0	0	0	0	444	
11	0	0	0	0	444	
12	0	0	0	0	443	
13	0	0	0	0	442	
14	0	0	0	0	441	
15	0	0	0	0	440	
0	0	0	0	0	440	
1	0	0	0	0	440	
2	0	0	0	0	440	
3	0	0	0	0	440	
4	0	0	0	0	440	
5	0	0	0	0	440	
6	0	0	0	0	441	
7	0	0	0	0	441	
8	0	0	0	0	443	
9	0	0	0	0	443	
10	0	0	0	0	442	
11	0	0	0	0	441	
12	0	0	0	0	440	
13	0	0	0	0	439	
14	0	0	0	0	439	
15	0	0	0	0	440	
0	0	0	0	0	441	
1	0	0	0	0	442	
2	0	0	0	0	442	
3	0	0	0	0	442	
4	0	0	0	0	443	
5	0	0	0	0	442	
6	0	0	0	0	441	
7	0	0	0	0	440	
8	0	0	0	0	440	
9	0	0	0	0	440	
10	0	0	0	0	439	
11	0	0	0	0	439	
12	0	0	0	0	440	
13	0	0	0	0	439	
14	0	0	0	0	438	
15	0	0	0	0	436	
0	0	0	0	0	436	
1	0	0	0	0	435	
2	0	0	0	0	434	
3	0	0	0	0	435	
4	0	0	0	0	435	
5	0	0	0	0	435	
6	0	0	0	0	435	
7	0	0	0	0	436	
8	0	0	0	0	435	
9	0	0	0	0	435	
10	0	0	0	0	435	
11	0	0	0	0	435	
12	0	0	0	0	433	
13	0	0	0	0	432	
14	0	0	0	0	432	
15	0	0	0	0	430	
0	0	0	0	0	430	
1	0	0	0	0	429	
2	0	0	0	0	427	
3	0	0	0	0	427	
4	0	0	0	0	426	
5	0	0	0	0	426	
6	0	0	0	0	425	
7	0	0	0	0	425	
8	0	0	0	0	425	
9	0	0	0	0	425	
10	0	0	0	0	425	
11	0	0	0	0	423	
12	0	0	0	0	422	
13	0	0	0	0	421	
14	0	0	0	0	420	
15	0	0	0	0	419	
0	0	0	0	0	419	
1	0	0	0	0	417	
2	0	0	0	0	416	
3	0	0	0	0	415	
4	0	0	0	0	414	
5	0	0	0	0	412	
6	0	0	0	0	410	
7	0	0	0	0	409	
8	0	0	0	0	408	
9	0	0	0	0	408	
10	0	0	0	0	407	
11	0	0	0	0	406	
12	0	0	0	0	405	
13	0	0	0	0	404	
14	0	0	0	0	403	
15	0	0	0	0	403	
0	0	0	0	0	403	
1	0	0	0	0	403	
2	0	0	0	0	402	
3	0	0	0	0	400	
4	0	0	0	0	400	
5	0	0	0	0	400	
6	0	0	0	0	401	
7	0	0	0	0	402	
8	0	0	0	0	403	
9	0	0	0	0	406	
10	0	0	0	0	408	
11	0	0	0	0	410	
12	0	0	0	0	410	
13	0	0	0	0	409	
14	0	0	0	0	408	
15	0	0	0	0	408	
0	0	0	0	0	409	
1	0	0	0	0	409	
2	0	0	0	0	411	
3	0	0	0	0	412	
4	0	0	0	0	412	
5	0	0	0	0	412	
6	0	0	0	0	412	
7	0	0	0	0	415	
8	0	0	0	0	417	
9	0	0	0	0	421	
10	0	0	0	0	425	
11	0	0	0	0	427	
12	0	0	0	0	428	
13	0	0	0	0	430	
14	0	0	0	0	431	
15	0	0	0	0	431	
0	0	0	0	0	432	
1	0	0	0	0	433	
2	0	0	0	0	434	
3	0	0	0	0	436	
4	0	0	0	0	438	
5	0	0	0	0	441	
6	0	0	0	0	444	
7	0	0	0	0	447	
8	0	0	0	0	449	
9	0	0	0	0	452	
10	0	0	0	0	456	
11	0	0	0	0	460	
12	0	0	0	0	462	
13	0	0	0	0	465	
14	0	0	0	0	467	
15	0	0	0	0	469	
0	0	0	0	0	472	
1	0	0	0	0	475	
2	0	0	0	0	477	
3	0	0	0	0	480	
4	0	0	0	0	483	
5	0	0	0	0	487	
6	0	0	0	0	492	
7	0	0	0	0	494	
8	0	0	0	0	495	
9	0	0	0	0	497	
10	0	0	0	0	500	
11	0	0	0	0	504	
12	0	0	0	0	507	
13	0	0	0	0	512	
14	0	0	0	0	517	
15	0	0	0	0	520	
0	0	0	0	0	523	
1	0	0	0	0	525	
2	0	0	0	0	526	
3	0	0	0	0	526	
4	0	0	0	0	528	
5	0	0	0	0	531	
6	0	0	0	0	533	
7	0	0	0	0	536	
8	0	0	0	0	538	
9	0	0	0	0	540	
10	0	0	0	0	544	
11	0	0	0	0	548	
12	0	0	0	0	551	
13	0	0	0	0	552	
14	0	0	0	0	556	
15	0	0	0	0	559	
0	0	0	0	0	561	
1	0	0	0	0	562	
2	0	0	0	0	563	
3	0	0	0	0	566	
4	0	0	0	0	567	
5	0	0	0	0	568	
6	0	0	0	0	570	
7	0	0	0	0	571	
8	0	0	0	0	573	
9	0	0	0	0	575	
10	0	0	0	0	576	
11	0	0	0	0	577	
12	0	0	0	0	578	
13	0	0	0	0	579	
14	0	0	0	0	581	
15	0	0	0	0	582	
0	0	0	0	0	582	
1	0	0	0	0	581	
2	0	0	0	0	583	
3	0	0	0	0	584	
4	0	0	0	0	583	
5	0	0	0	0	583	
6	0	0	0	0	582	
7	0	0	0	0	582	
8	0	0	0	0	582	
9	0	0	0	0	582	
10	0	0	0	0	582	
11	0	0	0	0	582	
12	0	0	0	0	583	
13	0	0	0	0	583	
14	0	0	0	0	583	
15	0	0	0	0	584	
0	0	0	0	0	584	
1	0	0	0	0	585	
2	0	0	0	0	584	
3	0	0	0	0	583	
4	0	0	0	0	583	
5	0	0	0	0	583	
6	0	0	0	0	583	
7	0	0	0	0	582	
8	0	0	0	0	580	
9	0	0	0	0	580	
10	0	0	0	0	578	
11	0	0	0	0	577	
12	0	0	0	0	576	
13	0	0	0	0	575	
14	0	0	0	0	575	
15	0	0	0	0	575	
0	0	0	0	0	577	
1	0	0	0	0	577	
2	0	0	0	0	576	
3	0	0	0	0	576	
4	0	0	0	0	576	
5	0	0	0	0	576	
6	0	0	0	0	575	
7	0	0	0	0	574	
8	0	0	0	0	574	
9	0	0	0	0	574	
10	0	0	0	0	574	
11	0	0	0	0	574	
12	0	0	0	0	574	
13	0	0	0	0	574	
14	0	0	0	0	572	
15	0	0	0	0	571	
0	0	0	0	0	571	
1	0	0	0	0	570	
2	0	0	0	0	570	
3	0	0	0	0	569	
4	0	0	0	0	569	
5	0	0	0	0	568	
6	0	0	0	0	567	
7	0	0	0	0	568	
8	0	0	0	0	569	
9	0	0	0	0	570	
10	0	0	0	0	569	
11	0	0	0	0	566	
12	0	0	0	0	564	
13	0	0	0	0	563	
14	0	0	0	0	562	
15	0	0	0	0	562	
0	0	0	0	0	562	
1	0	0	0	0	562	
2	0	0	0	0	561	
3	0	0	0	0	562	
4	0	0	0	0	560	
5	0	0	0	0	559	
6	0	0	0	0	558	
7	0	0	0	0	557	
8	0	0	0	0	557	
9	0	0	0	0	555	
10	0	0	0	0	554	
11	0	0	0	0	553	
12	0	0	0	0	553	
13	0	0	0	0	552	
14	0	0	0	0	552	
15	0	0	0	0	552	
0	0	0	0	0	552	
1	0	0	0	0	552	
2	0	0	0	0	551	
3	0	0	0	0	551	
4	0	0	0	0	551	
5	0	0	0	0	550	
6	0	0	0	0	551	
7	0	0	0	0	551	
8	0	0	0	0	550	
9	0	0	0	0	549	
10	0	0	0	0	549	
11	0	0	0	0	548	
12	0	0	0	0	547	
13	0	0	0	0	546	
14	0	0	0	0	545	
15	0	0	0	0	543	
0	0	0	0	0	541	
1	0	0	0	0	540	
2	0	0	0	0	540	
3	0	0	0	0	540	
4	0	0	0	0	540	
5	0	0	0	0	541	
6	0	0	0	0	540	
7	0	0	0	0	539	
8	0	0	0	0	537	
9	0	0	0	0	536	
10	0	0	0	0	536	
11	0	0	0	0	535	
12	0	0	0	0	535	
13	0	0	0	0	535	
14	0	0	0	0	535	
15	0	0	0	0	534	
0	0	0	0	0	533	
1	0	0	0	0	533	
2	0	0	0	0	533	
3	0	0	0	0	533	
4	0	0	0	0	532	
5	0	0	0	0	531	
6	0	0	0	0	531	
7	0	0	0	0	532	
8	0	0	0	0	533	
9	0	0	0	0	533	
10	0	0	0	0	532	
11	0	0	0	0	531	
12	0	0	0	0	529	
13	0	0	0	0	527	
14	0	0	0	0	526	
15	0	0	0	0	525	
0	0	0	0	0	525	
1	0	0	0	0	526	
2	0	0	0	0	526	
3	0	0	0	0	527	
4	0	0	0	0	527	
5	0	0	0	0	527	
6	0	0	0	0	526	
7	0	0	0	0	526	
8	0	0	0	0	526	
9	0	0	0	0	526	
10	0	0	0	0	526	
11	0	0	0	0	527	
12	0	0	0	0	527	
13	0	0	0	0	526	
14	0	0	0	0	525	
15	0	0	0	0	524	
0	0	0	0	0	523	
1	0	0	0	0	523	
2	0	0	0	0	523	
3	0	0	0	0	523	
4	0	0	0	0	523	
5	0	0	0	0	524	
6	0	0	0	0	523	
7	0	0	0	0	523	
8	0	0	0	0	523	
9	0	0	0	0	523	
10	0	0	0	0	521	
11	0	0	0	0	520	
12	0	0	0	0	519	
13	0	0	0	0	519	
14	0	0	0	0	518	
15	0	0	0	0	518	
0	0	0	0	0	519	
1	0	0	0	0	519	
2	0	0	0	0	519	
3	0	0	0	0	519	
4	0	0	0	0	519	
5	0	0	0	0	519	
6	0	0	0	0	520	
7	0	0	0	0	523	
8	0	0	0	0	522	
9	0	0	0	0	521	
10	0	0	0	0	521	
11	0	0	0	0	521	
12	0	0	0	0	520	
13	0	0	0	0	520	
14	0	0	0	0	519	
15	0	0	0	0	519	
0	0	0	0	0	518	
1	0	0	0	0	518	
2	0	0	0	0	518	
3	0	0	0	0	518	
4	0	0	0	0	517	
5	0	0	0	0	517	
6	0	0	0	0	515	
7	0	0	0	0	515	
8	0	0	0	0	516	
9	0	0	0	0	515	
10	0	0	0	0	515	
11	0	0	0	0	516	
12	0	0	0	0	516	
13	0	0	0	0	516	
14	0	0	0	0	516	
15	0	0	0	0	515	
0	0	0	0	0	514	
1	0	0	0	0	514	
2	0	0	0	0	514	
3	0	0	0	0	515	
4	0	0	0	0	516	
5	0	0	0	0	517	
6	0	0	0	0	517	
7	0	0	0	0	515	
8	0	0	0	0	515	
9	0	0	0	0	515	
10	0	0	0	0	515	
11	0	0	0	0	515	
12	0	0	0	0	515	
13	0	0	0	0	514	
14	0	0	0	0	512	
15	0	0	0	0	511	
0	0	0	0	0	510	
1	0	0	0	0	510	
2	0	0	0	0	511	
3	0	0	0	0	512	
4	0	0	0	0	514	
5	0	0	0	0	516	
6	0	0	0	0	518	
7	0	0	0	0	518	
8	0	0	0	0	518	
9	0	0	0	0	517	
10	0	0	0	0	515	
11	0	0	0	0	512	
12	0	0	0	0	512	
13	0	0	0	0	512	
14	0	0	0	0	513	
15	0	0	0	0	514	
0	0	0	0	0	513	
1	0	0	0	0	512	
2	0	0	0	0	512	
3	0	0	0	0	512	
4	0	0	0	0	513	
5	0	0	0	0	513	
6	0	0	0	0	515	
7	0	0	0	0	513	
8	0	0	0	0	514	
9	0	0	0	0	513	
10	0	0	0	0	513	
11	0	0	0	0	515	
12	0	0	0	0	514	
13	0	0	0	0	514	
14	0	0	0	0	513	
15	0	0	0	0	512	
0	0	0	0	0	511	
1	0	0	0	0	511	
2	0	0	0	0	511	
3	0	0	0	0	511	
4	0	0	0	0	512	
5	0	0	0	0	512	
6	0	0	0	0	514	
7	0	0	0	0	516	
8	0	0	0	0	515	
9	0	0	0	0	514	
10	0	0	0	0	513	
11	0	0	0	0	512	
12	0	0	0	0	512	
13	0	0	0	0	512	
14	0	0	0	0	513	
15	0	0	0	0	512	
0	0	0	0	0	512	
1	0	0	0	0	513	
2	0	0	0	0	513	
3	0	0	0	0	514	
4	0	0	0	0	516	
5	0	0	0	0	516	
6	0	0	0	0	517	
7	0	0	0	0	517	
8	0	0	0	0	515	
9	0	0	0	0	514	
10	0	0	0	0	512	
11	0	0	0	0	512	
12	0	0	0	0	512	
13	0	0	0	0	511	
14	0	0	0	0	511	
15	0	0	0	0	509	
0	0	0	0	0	507	
1	0	0	0	0	507	
2	0	0	0	0	507	
3	0	0	0	0	508	
4	0	0	0	0	509	
5	0	0	0	0	509	
6	0	0	0	0	509	
7	0	0	0	0	508	
8	0	0	0	0	509	
9	0	0	0	0	509	
10	0	0	0	0	510	
11	0	0	0	0	510	
12	0	0	0	0	510	
13	0	0	0	0	511	
14	0	0	0	0	511	
15	0	0	0	0	511	
0	0	0	0	0	510	
1	0	0	0	0	510	
2	0	0	0	0	510	
3	0	0	0	0	510	
4	0	0	0	0	510	
5	0	0	0	0	511	
6	0	0	0	0	511	
7	0	0	0	0	512	
8	0	0	0	0	512	
9	0	0	0	0	511	
10	0	0	0	0	511	
11	0	0	0	0	510	
12	0	0	0	0	510	
13	0	0	0	0	510	
14	0	0	0	0	509	
15	0	0	0	0	509	
0	0	0	0	0	510	
1	0	0	0	0	510	
2	0	0	0	0	510	
3	0	0	0	0	511	
4	0	0	0	0	510	
5	0	0	0	0	509	
6	0	0	0	0	508	
7	0	0	0	0	508	
8	0	0	0	0	509	
9	0	0	0	0	509	
10	0	0	0	0	508	
11	0	0	0	0	508	
12	0	0	0	0	508	
13	0	0	0	0	508	
14	0	0	0	0	508	
15	0	0	0	0	508	
0	0	0	0	0	508	
1	0	0	0	0	509	
2	0	0	0	0	509	
3	0	0	0	0	508	
4	0	0	0	0	508	
5	0	0	0	0	508	
6	0	0	0	0	508	
7	0	0	0	0	509	
8	0	0	0	0	510	
9	0	0	0	0	510	
10	0	0	0	0	510	
11	0	0	0	0	510	
12	0	0	0	0	512	
13	0	0	0	0	513	
14	0	0	0	0	513	
15	0	0	0	0	514	
0	0	0	0	0	514	
1	0	0	0	0	514	
2	0	0	0	0	513	
3	0	0	0	0	512	
4	0	0	0	0	511	
5	0	0	0	0	511	
6	0	0	0	0	511	
7	0	0	0	0	510	
8	0	0	0	0	508	
9	0	0	0	0	507	
10	0	0	0	0	505	
11	0	0	0	0	502	
12	0	0	0	0	500	
13	0	0	0	0	498	
14	0	0	0	0	497	
15	0	0	0	0	496	
0	0	0	0	0	495	
1	0	0	0	0	494	
2	0	0	0	0	492	
3	0	0	0	0	490	
4	0	0	0	0	489	
5	0	0	0	0	487	
6	0	0	0	0	484	
7	0	0	0	0	484	
8	0	0	0	0	484	
9	0	0	0	0	484	
10	0	0	0	0	484	
11	0	0	0	0	484	
12	0	0	0	0	484	
13	0	0	0	0	483	
14	0	0	0	0	481	
15	0	0	0	0	480	
0	0	0	0	0	480	
1	0	0	0	0	480	
2	0	0	0	0	481	
3	0	0	0	0	482	
4	0	0	0	0	482	
5	0	0	0	0	481	
6	0	0	0	0	481	
7	0	0	0	0	481	
8	0	0	0	0	482	
9	0	0	0	0	483	
10	0	0	0	0	484	
11	0	0	0	0	486	
12	0	0	0	0	488	
13	0	0	0	0	489	
14	0	0	0	0	489	
15	0	0	0	0	491	
0	0	0	0	0	495	
1	0	0	0	0	496	
2	0	0	0	0	497	
3	0	0	0	0	499	
4	0	0	0	0	499	
5	0	0	0	0	500	
6	0	0	0	0	501	
7	0	0	0	0	501	
8	0	0	0	0	500	
9	0	0	0	0	500	
10	0	0	0	0	499	
11	0	0	0	0	500	
12	0	0	0	0	502	
13	0	0	0	0	503	
14	0	0	0	0	505	
15	0	0	0	0	508	
0	0	0	0	0	511	
1	0	0	0	0	513	
2	0	0	0	0	515	
3	0	0	0	0	515	
4	0	0	0	0	516	
5	0	0	0	0	516	
6	0	0	0	0	516	
7	0	0	0	0	516	
8	0	0	0	0	516	
9	0	0	0	0	516	
10	0	0	0	0	515	
11	0	0	0	0	515	
12	0	0	0	0	515	
13	0	0	0	0	515	
14	0	0	0	0	516	
15	0	0	0	0	516	
0	0	0	0	0	516	
1	0	0	0	0	517	
2	0	0	0	0	518	
3	0	0	0	0	519	
4	0	0	0	0	519	
5	0	0	0	0	519	
6	0	0	0	0	519	
7	0	0	0	0	519	
8	0	0	0	0	518	
9	0	0	0	0	518	
10	0	0	0	0	518	
11	0	0	0	0	519	
12	0	0	0	0	519	
13	0	0	0	0	519	
14	0	0	0	0	519	
15	0	0	0	0	521	
0	0	0	0	0	521	
1	0	0	0	0	522	
2	0	0	0	0	522	
3	0	0	0	0	521	
4	0	0	0	0	520	
5	0	0	0	0	519	
6	0	0	0	0	518	
7	0	0	0	0	515	
8	0	0	0	0	513	
9	0	0	0	0	512	
10	0	0	0	0	512	
11	0	0	0	0	510	
12	0	0	0	0	508	
13	0	0	0	0	505	
14	0	0	0	0	502	
15	0	0	0	0	499	
0	0	0	0	0	494	
1	0	0	0	0	488	
2	0	0	0	0	482	
3	0	0	0	0	476	
4	0	0	0	0	469	
5	0	0	0	0	463	
6	0	0	0	0	457	
7	0	0	0	0	449	
8	0	0	0	0	439	
9	0	0	0	0	429	
10	0	0	0	0	420	
11	0	0	0	0	413	
12	0	0	0	0	407	
13	0	0	0	0	399	
14	0	0	0	0	394	
15	0	0	0	0	388	
0	0	0	0	0	382	
1	0	0	0	0	376	
2	0	0	0	0	369	
3	0	0	0	0	360	
4	0	0	0	0	351	
5	0	0	0	0	344	
6	0	0	0	0	339	
7	0	0	0	0	335	
8	0	0	0	0	332	
9	0	0	0	0	332	
10	0	0	0	0	334	
11	0	0	0	0	339	
12	0	0	0	0	347	
13	0	0	0	0	356	
14	0	0	0	0	369	
15	0	0	0	0	387	
0	0	0	0	0	408	
1	0	0	0	0	430	
2	0	0	0	0	452	
3	0	0	0	0	476	
4	0	0	0	0	501	
5	0	0	0	0	529	
6	0	0	0	0	558	
7	0	0	0	0	588	
8	0	0	0	0	618	
9	0	0	0	0	647	
10	0	0	0	0	679	
11	0	0	0	0	711	
12	0	0	0	0	738	
13	0	0	0	0	760	
14	0	0	0	0	776	
15	0	0	0	0	787	
0	0	0	0	0	795	
1	0	0	0	0	801	
2	0	0	0	0	803	
3	0	0	0	0	804	
4	0	0	0	0	803	
5	0	0	0	0	799	
6	0	0	0	0	795	
7	0	0	0	0	788	
8	0	0	0	0	778	
9	0	0	0	0	769	
10	0	0	0	0	760	
11	0	0	0	0	752	
12	0	0	0	0	744	
13	0	0	0	0	736	
14	0	0	0	0	726	
15	0	0	0	0	718	
0	0	0	0	0	709	
1	0	0	0	0	702	
2	0	0	0	0	692	
3	0	0	0	0	683	
4	0	0	0	0	674	
5	0	0	0	0	665	
6	0	0	0	0	655	
7	0	0	0	0	645	
8	0	0	0	0	635	
9	0	0	0	0	624	
10	0	0	0	0	612	
11	0	0	0	0	602	
12	0	0	0	0	591	
13	0	0	0	0	580	
14	0	0	0	0	569	
15	0	0	0	0	559	
0	0	0	0	0	552	
1	0	0	0	0	545	
2	0	0	0	0	540	
3	0	0	0	0	534	
4	0	0	0	0	528	
5	0	0	0	0	520	
6	0	0	0	0	513	
7	0	0	0	0	508	
8	0	0	0	0	502	
9	0	0	0	0	498	
10	0	0	0	0	493	
11	0	0	0	0	487	
12	0	0	0	0	482	
13	0	0	0	0	478	
14	0	0	0	0	475	
15	0	0	0	0	472	
0	0	0	0	0	470	
1	0	0	0	0	469	
2	0	0	0	0	467	
3	0	0	0	0	464	
4	0	0	0	0	460	
5	0	0	0	0	458	
6	0	0	0	0	456	
7	0	0	0	0	455	
8	0	0	0	0	454	
9	0	0	0	0	452	
10	0	0	0	0	451	
11	0	0	0	0	450	
12	0	0	0	0	449	
13	0	0	0	0	449	
14	0	0	0	0	449	
15	0	0	0	0	449	
0	0	0	0	0	449	
1	0	0	0	0	449	
2	0	0	0	0	448	
3	0	0	0	0	447	
4	0	0	0	0	446	
5	0	0	0	0	445	
6	0	0	0	0	444	
7	0	0	0	0	444	
8	0	0	0	0	445	
9	0	0	0	0	445	
10	0	0	0	0	445	
11	0	0	0	0	444	
12	0	0	0	0	444	
13	0	0	0	0	444	
14	0	0	0	0	444	
15	0	0	0	0	444	
0	0	0	0	0	445	
1	0	0	0	0	444	
2	0	0	0	0	440	
3	0	0	0	0	438	
4	0	0	0	0	438	
5	0	0	0	0	439	
6	0	0	0	0	440	
7	0	0	0	0	442	
8	0	0	0	0	443	
9	0	0	0	0	443	
10	0	0	0	0	442	
11	0	0	0	0	441	
12	0	0	0	0	441	
13	0	0	0	0	440	
14	0	0	0	0	441	
15	0	0	0	0	442	
0	0	0	0	0	442	
1	0	0	0	0	442	
2	0	0	0	0	441	
3	0	0	0	0	441	
4	0	0	0	0	443	
5	0	0	0	0	446	
6	0	0	0	0	448	
7	0	0	0	0	446	
8	0	0	0	0	445	
9	0	0	0	0	444	
10	0	0	0	0	444	
11	0	0	0	0	442	
12	0	0	0	0	441	
13	0	0	0	0	442	
14	0	0	0	0	443	
15	0	0	0	0	441	
0	0	0	0	0	440	
1	0	0	0	0	440	
2	0	0	0	0	440	
3	0	0	0	0	441	
4	0	0	0	0	441	
5	0	0	0	0	442	
6	0	0	0	0	442	
7	0	0	0	0	441	
8	0	0	0	0	443	
9	0	0	0	0	444	
10	0	0	0	0	444	
11	0	0	0	0	444	
12	0	0	0	0	443	
13	0	0	0	0	441	
14	0	0	0	0	441	
15	0	0	0	0	440	
0	0	0	0	0	440	
1	0	0	0	0	441	
2	0	0	0	0	440	
3	0	0	0	0	439	
4	0	0	0	0	439	
5	0	0	0	0	437	
6	0	0	0	0	435	
7	0	0	0	0	434	
8	0	0	0	0	433	
9	0	0	0	0	433	
10	0	0	0	0	432	
11	0	0	0	0	432	
12	0	0	0	0	432	
13	0	0	0	0	432	
14	0	0	0	0	433	
15	0	0	0	0	433	
0	0	0	0	0	433	
1	0	0	0	0	433	
2	0	0	0	0	431	
3	0	0	0	0	429	
4	0	0	0	0	427	
5	0	0	0	0	427	
6	0	0	0	0	426	
7	0	0	0	0	426	
8	0	0	0	0	425	
9	0	0	0	0	423	
10	0	0	0	0	422	
11	0	0	0	0	422	
12	0	0	0	0	421	
13	0	0	0	0	418	
14	0	0	0	0	416	
15	0	0	0	0	415	
0	0	0	0	0	414	
1	0	0	0	0	414	
2	0	0	0	0	414	
3	0	0	0	0	414	
4	0	0	0	0	412	
5	0	0	0	0	411	
6	0	0	0	0	410	
7	0	0	0	0	411	
8	0	0	0	0	410	
9	0	0	0	0	409	
10	0	0	0	0	409	
11	0	0	0	0	409	
12	0	0	0	0	408	
13	0	0	0	0	407	
14	0	0	0	0	407	
15	0	0	0	0	407	
0	0	0	0	0	408	
1	0	0	0	0	408	
2	0	0	0	0	405	
3	0	0	0	0	403	
4	0	0	0	0	404	
5	0	0	0	0	404	
6	0	0	0	0	404	
7	0	0	0	0	404	
8	0	0	0	0	403	
9	0	0	0	0	402	
10	0	0	0	0	403	
11	0	0	0	0	404	
12	0	0	0	0	406	
13	0	0	0	0	406	
14	0	0	0	0	406	
15	0	0	0	0	405	
0	0	0	0	0	405	
1	0	0	0	0	406	
2	0	0	0	0	407	
3	0	0	0	0	407	
4	0	0	0	0	408	
5	0	0	0	0	409	
6	0	0	0	0	412	
7	0	0	0	0	414	
8	0	0	0	0	415	
9	0	0	0	0	417	
10	0	0	0	0	420	
11	0	0	0	0	421	
12	0	0	0	0	423	
13	0	0	0	0	424	
14	0	0	0	0	426	
15	0	0	0	0	427	
0	0	0	0	0	428	
1	0	0	0	0	429	
2	0	0	0	0	430	
3	0	0	0	0	431	
4	0	0	0	0	435	
5	0	0	0	0	438	
6	0	0	0	0	440	
7	0	0	0	0	443	
8	0	0	0	0	444	
9	0	0	0	0	446	
10	0	0	0	0	447	
11	0	0	0	0	449	
12	0	0	0	0	453	
13	0	0	0	0	457	
14	0	0	0	0	461	
15	0	0	0	0	464	
0	0	0	0	0	467	
1	0	0	0	0	470	
2	0	0	0	0	473	
3	0	0	0	0	474	
4	0	0	0	0	477	
5	0	0	0	0	479	
6	0	0	0	0	481	
7	0	0	0	0	483	
8	0	0	0	0	486	
9	0	0	0	0	490	
10	0	0	0	0	493	
11	0	0	0	0	497	
12	0	0	0	0	502	
13	0	0	0	0	505	
14	0	0	0	0	508	
15	0	0	0	0	511	
0	0	0	0	0	514	
1	0	0	0	0	517	
2	0	0	0	0	519	
3	0	0	0	0	522	
4	0	0	0	0	525	
5	0	0	0	0	528	
6	0	0	0	0	532	
7	0	0	0	0	535	
8	0	0	0	0	537	
9	0	0	0	0	540	
10	0	0	0	0	542	
11	0	0	0	0	544	
12	0	0	0	0	547	
13	0	0	0	0	550	
14	0	0	0	0	553	
15	0	0	0	0	556	
0	0	0	0	0	559	
1	0	0	0	0	560	
2	0	0	0	0	563	
3	0	0	0	0	564	
4	0	0	0	0	567	
5	0	0	0	0	568	
6	0	0	0	0	568	
7	0	0	0	0	568	
8	0	0	0	0	569	
9	0	0	0	0	572	
10	0	0	0	0	573	
11	0	0	0	0	574	
12	0	0	0	0	575	
13	0	0	0	0	577	
14	0	0	0	0	579	
15	0	0	0	0	581	
0	0	0	0	0	582	
1	0	0	0	0	583	
2	0	0	0	0	583	
3	0	0	0	0	583	
4	0	0	0	0	582	
5	0	0	0	0	582	
6	0	0	0	0	583	
7	0	0	0	0	584	
8	0	0	0	0	586	
9	0	0	0	0	587	
10	0	0	0	0	586	
11	0	0	0	0	585	
12	0	0	0	0	585	
13	0	0	0	0	586	
14	0	0	0	0	587	
15	0	0	0	0	585	
0	0	0	0	0	584	
1	0	0	0	0	585	
2	0	0	0	0	585	
3	0	0	0	0	584	
4	0	0	0	0	583	
5	0	0	0	0	582	
6	0	0	0	0	581	
7	0	0	0	0	579	
8	0	0	0	0	579	
9	0	0	0	0	579	
10	0	0	0	0	577	
11	0	0	0	0	577	
12	0	0	0	0	577	
13	0	0	0	0	578	
14	0	0	0	0	579	
15	0	0	0	0	580	
0	0	0	0	0	579	
1	0	0	0	0	579	
2	0	0	0	0	577	
3	0	0	0	0	576	
4	0	0	0	0	576	
5	0	0	0	0	575	
6	0	0	0	0	574	
7	0	0	0	0	573	
8	0	0	0	0	572	
9	0	0	0	0	571	
10	0	0	0	0	570	
11	0	0	0	0	571	
12	0	0	0	0	571	
13	0	0	0	0	572	
14	0	0	0	0	573	
15	0	0	0	0	574	
0	0	0	0	0	573	
1	0	0	0	0	572	
2	0	0	0	0	571	
3	0	0	0	0	571	
4	0	0	0	0	570	
5	0	0	0	0	569	
6	0	0	0	0	567	
7	0	0	0	0	566	
8	0	0	0	0	564	
9	0	0	0	0	563	
10	0	0	0	0	562	
11	0	0	0	0	561	
12	0	0	0	0	559	
13	0	0	0	0	559	
14	0	0	0	0	559	
15	0	0	0	0	559	
0	0	0	0	0	559	
1	0	0	0	0	557	
2	0	0	0	0	557	
3	0	0	0	0	558	
4	0	0	0	0	556	
5	0	0	0	0	556	
6	0	0	0	0	555	
7	0	0	0	0	554	
8	0	0	0	0	553	
9	0	0	0	0	553	
10	0	0	0	0	551	
11	0	0	0	0	549	
12	0	0	0	0	547	
13	0	0	0	0	547	
14	0	0	0	0	548	
15	0	0	0	0	547	
0	0	0	0	0	547	
1	0	0	0	0	548	
2	0	0	0	0	549	
3	0	0	0	0	550	
4	0	0	0	0	550	
5	0	0	0	0	549	
6	0	0	0	0	548	
7	0	0	0	0	548	
8	0	0	0	0	548	
9	0	0	0	0	547	
10	0	0	0	0	546	
11	0	0	0	0	545	
12	0	0	0	0	543	
13	0	0	0	0	540	
14	0	0	0	0	539	
15	0	0	0	0	538	
0	0	0	0	0	537	
1	0	0	0	0	537	
2	0	0	0	0	537	
3	0	0	0	0	539	
4	0	0	0	0	538	
5	0	0	0	0	536	
6	0	0	0	0	536	
7	0	0	0	0	536	
8	0	0	0	0	534	
9	0	0	0	0	534	
10	0	0	0	0	532	
11	0	0	0	0	531	
12	0	0	0	0	531	
13	0	0	0	0	531	
14	0	0	0	0	530	
15	0	0	0	0	529	
0	0	0	0	0	529	
1	0	0	0	0	528	
2	0	0	0	0	527	
3	0	0	0	0	527	
4	0	0	0	0	527	
5	0	0	0	0	528	
6	0	0	0	0	526	
7	0	0	0	0	526	
8	0	0	0	0	525	
9	0	0	0	0	524	
10	0	0	0	0	524	
11	0	0	0	0	522	
12	0	0	0	0	521	
13	0	0	0	0	521	
14	0	0	0	0	521	
15	0	0	0	0	521	
0	0	0	0	0	521	
1	0	0	0	0	522	
2	0	0	0	0	521	
3	0	0	0	0	521	
4	0	0	0	0	520	
5	0	0	0	0	520	
6	0	0	0	0	520	
7	0	0	0	0	519	
8	0	0	0	0	519	
9	0	0	0	0	517	
10	0	0	0	0	516	
11	0	0	0	0	516	
12	0	0	0	0	515	
13	0	0	0	0	514	
14	0	0	0	0	515	
15	0	0	0	0	516	
0	0	0	0	0	516	
1	0	0	0	0	516	
2	0	0	0	0	517	
3	0	0	0	0	518	
4	0	0	0	0	519	
5	0	0	0	0	519	
6	0	0	0	0	519	
7	0	0	0	0	517	
8	0	0	0	0	515	
9	0	0	0	0	514	
10	0	0	0	0	513	
11	0	0	0	0	512	
12	0	0	0	0	512	
13	0	0	0	0	512	
14	0	0	0	0	511	
15	0	0	0	0	511	
0	0	0	0	0	511	
1	0	0	0	0	511	
2	0	0	0	0	511	
3	0	0	0	0	512	
4	0	0	0	0	512	
5	0	0	0	0	511	
6	0	0	0	0	511	
7	0	0	0	0	511	
8	0	0	0	0	511	
9	0	0	0	0	511	
10	0	0	0	0	510	
11	0	0	0	0	509	
12	0	0	0	0	509	
13	0	0	0	0	508	
14	0	0	0	0	507	
15	0	0	0	0	507	
0	0	0	0	0	506	
1	0	0	0	0	506	
2	0	0	0	0	506	
3	0	0	0	0	507	
4	0	0	0	0	507	
5	0	0	0	0	507	
6	0	0	0	0	506	
7	0	0	0	0	505	
8	0	0	0	0	504	
9	0	0	0	0	504	
10	0	0	0	0	504	
11	0	0	0	0	504	
12	0	0	0	0	505	
13	0	0	0	0	506	
14	0	0	0	0	505	
15	0	0	0	0	505	
0	0	0	0	0	504	
1	0	0	0	0	504	
2	0	0	0	0	504	
3	0	0	0	0	505	
4	0	0	0	0	505	
5	0	0	0	0	506	
6	0	0	0	0	505	
7	0	0	0	0	505	
8	0	0	0	0	506	
9	0	0	0	0	506	
10	0	0	0	0	506	
11	0	0	0	0	507	
12	0	0	0	0	506	
13	0	0	0	0	506	
14	0	0	0	0	507	
15	0	0	0	0	508	
0	0	0	0	0	506	
1	0	0	0	0	505	
2	0	0	0	0	505	
3	0	0	0	0	503	
4	0	0	0	0	504	
5	0	0	0	0	505	
6	0	0	0	0	506	
7	0	0	0	0	506	
8	0	0	0	0	505	
9	0	0	0	0	504	
10	0	0	0	0	502	
11	0	0	0	0	502	
12	0	0	0	0	502	
13	0	0	0	0	501	
14	0	0	0	0	500	
15	0	0	0	0	500	
0	0	0	0	0	498	
1	0	0	0	0	498	
2	0	0	0	0	497	
3	0	0	0	0	498	
4	0	0	0	0	497	
5	0	0	0	0	497	
6	0	0	0	0	499	
7	0	0	0	0	500	
8	0	0	0	0	501	
9	0	0	0	0	501	
10	0	0	0	0	501	
11	0	0	0	0	501	
12	0	0	0	0	501	
13	0	0	0	0	502	
14	0	0	0	0	500	
15	0	0	0	0	499	
0	0	0	0	0	499	
1	0	0	0	0	498	
2	0	0	0	0	497	
3	0	0	0	0	496	
4	0	0	0	0	495	
5	0	0	0	0	496	
6	0	0	0	0	497	
7	0	0	0	0	499	
8	0	0	0	0	502	
9	0	0	0	0	502	
10	0	0	0	0	502	
11	0	0	0	0	499	
12	0	0	0	0	498	
13	0	0	0	0	497	
14	0	0	0	0	497	
15	0	0	0	0	497	
0	0	0	0	0	497	
1	0	0	0	0	497	
2	0	0	0	0	497	
3	0	0	0	0	497	
4	0	0	0	0	497	
5	0	0	0	0	497	
6	0	0	0	0	497	
7	0	0	0	0	497	
8	0	0	0	0	498	
9	0	0	0	0	498	
10	0	0	0	0	497	
11	0	0	0	0	497	
12	0	0	0	0	497	
13	0	0	0	0	497	
14	0	0	0	0	498	
15	0	0	0	0	498	
0	0	0	0	0	499	
1	0	0	0	0	499	
2	0	0	0	0	499	
3	0	0	0	0	497	
4	0	0	0	0	497	
5	0	0	0	0	497	
6	0	0	0	0	497	
7	0	0	0	0	496	
8	0	0	0	0	496	
9	0	0	0	0	496	
10	0	0	0	0	497	
11	0	0	0	0	496	
12	0	0	0	0	496	
13	0	0	0	0	496	
14	0	0	0	0	497	
15	0	0	0	0	495	
0	0	0	0	0	495	
1	0	0	0	0	495	
2	0	0	0	0	495	
3	0	0	0	0	494	
4	0	0	0	0	494	
5	0	0	0	0	495	
6	0	0	0	0	496	
7	0	0	0	0	497	
8	0	0	0	0	497	
9	0	0	0	0	497	
10	0	0	0	0	498	
11	0	0	0	0	498	
12	0	0	0	0	497	
13	0	0	0	0	496	
14	0	0	0	0	496	
15	0	0	0	0	495	
0	0	0	0	0	495	
1	0	0	0	0	493	
2	0	0	0	0	492	
3	0	0	0	0	492	
4	0	0	0	0	492	
5	0	0	0	0	492	
6	0	0	0	0	494	
7	0	0	0	0	494	
8	0	0	0	0	494	
9	0	0	0	0	494	
10	0	0	0	0	495	
11	0	0	0	0	496	
12	0	0	0	0	496	
13	0	0	0	0	496	
14	0	0	0	0	495	
15	0	0	0	0	494	
0	0	0	0	0	494	
1	0	0	0	0	494	
2	0	0	0	0	493	
3	0	0	0	0	492	
4	0	0	0	0	491	
5	0	0	0	0	490	
6	0	0	0	0	491	
7	0	0	0	0	492	
8	0	0	0	0	492	
9	0	0	0	0	493	
10	0	0	0	0	493	
11	0	0	0	0	494	
12	0	0	0	0	494	
13	0	0	0	0	494	
14	0	0	0	0	494	
15	0	0	0	0	494	
0	0	0	0	0	492	
1	0	0	0	0	490	
2	0	0	0	0	489	
3	0	0	0	0	489	
4	0	0	0	0	490	
5	0	0	0	0	489	
6	0	0	0	0	490	
7	0	0	0	0	491	
8	0	0	0	0	492	
9	0	0	0	0	492	
10	0	0	0	0	492	
11	0	0	0	0	492	
12	0	0	0	0	492	
13	0	0	0	0	492	
14	0	0	0	0	491	
15	0	0	0	0	491	
0	0	0	0	0	490	
1	0	0	0	0	491	
2	0	0	0	0	492	
3	0	0	0	0	491	
4	0	0	0	0	491	
5	0	0	0	0	491	
6	0	0	0	0	491	
7	0	0	0	0	490	
8	0	0	0	0	490	
9	0	0	0	0	489	
10	0	0	0	0	491	
11	0	0	0	0	491	
12	0	0	0	0	491	
13	0	0	0	0	492	
14	0	0	0	0	493	
15	0	0	0	0	494	
0	0	0	0	0	494	
1	0	0	0	0	494	
2	0	0	0	0	495	
3	0	0	0	0	497	
4	0	0	0	0	497	
5	0	0	0	0	496	
6	0	0	0	0	495	
7	0	0	0	0	495	
8	0	0	0	0	495	
9	0	0	0	0	494	
10	0	0	0	0	494	
11	0	0	0	0	494	
12	0	0	0	0	493	
13	0	0	0	0	492	
14	0	0	0	0	490	
15	0	0	0	0	491	
0	0	0	0	0	491	
1	0	0	0	0	490	
2	0	0	0	0	490	
3	0	0	0	0	490	
4	0	0	0	0	488	
5	0	0	0	0	487	
6	0	0	0	0	484	
7	0	0	0	0	483	
8	0	0	0	0	481	
9	0	0	0	0	480	
10	0	0	0	0	480	
11	0	0	0	0	480	
12	0	0	0	0	480	
13	0	0	0	0	479	
14	0	0	0	0	478	
15	0	0	0	0	477	
0	0	0	0	0	477	
1	0	0	0	0	477	
2	0	0	0	0	476	
3	0	0	0	0	476	
4	0	0	0	0	474	
5	0	0	0	0	472	
6	0	0	0	0	470	
7	0	0	0	0	468	
8	0	0	0	0	465	
9	0	0	0	0	464	
10	0	0	0	0	462	
11	0	0	0	0	462	
12	0	0	0	0	463	
13	0	0	0	0	463	
14	0	0	0	0	463	
15	0	0	0	0	462	
0	0	0	0	0	462	
1	0	0	0	0	463	
2	0	0	0	0	464	
3	0	0	0	0	464	
4	0	0	0	0	466	
5	0	0	0	0	467	
6	0	0	0	0	469	
7	0	0	0	0	471	
8	0	0	0	0	472	
9	0	0	0	0	472	
10	0	0	0	0	474	
11	0	0	0	0	475	
12	0	0	0	0	475	
13	0	0	0	0	476	
14	0	0	0	0	480	
15	0	0	0	0	483	
0	0	0	0	0	484	
1	0	0	0	0	486	
2	0	0	0	0	487	
3	0	0	0	0	488	
4	0	0	0	0	490	
5	0	0	0	0	491	
6	0	0	0	0	491	
7	0	0	0	0	491	
8	0	0	0	0	492	
9	0	0	0	0	492	
10	0	0	0	0	494	
11	0	0	0	0	496	
12	0	0	0	0	497	
13	0	0	0	0	498	
14	0	0	0	0	499	
15	0	0	0	0	500	
0	0	0	0	0	500	
1	0	0	0	0	500	
2	0	0	0	0	500	
3	0	0	0	0	500	
4	0	0	0	0	501	
5	0	0	0	0	502	
6	0	0	0	0	501	
7	0	0	0	0	499	
8	0	0	0	0	497	
9	0	0	0	0	496	
10	0	0	0	0	497	
11	0	0	0	0	498	
12	0	0	0	0	501	
13	0	0	0	0	502	
14	0	0	0	0	504	
15	0	0	0	0	504	
0	0	0	0	0	503	
1	0	0	0	0	504	
2	0	0	0	0	505	
3	0	0	0	0	506	
4	0	0	0	0	506	
5	0	0	0	0	506	
6	0	0	0	0	505	
7	0	0	0	0	504	
8	0	0	0	0	503	
9	0	0	0	0	503	
10	0	0	0	0	503	
11	0	0	0	0	504	
12	0	0	0	0	505	
13	0	0	0	0	507	
14	0	0	0	0	508	
15	0	0	0	0	509	
0	0	0	0	0	508	
1	0	0	0	0	507	
2	0	0	0	0	504	
3	0	0	0	0	502	
4	0	0	0	0	499	
5	0	0	0	0	495	
6	0	0	0	0	491	
7	0	0	0	0	486	
8	0	0	0	0	482	
9	0	0	0	0	476	
10	0	0	0	0	468	
11	0	0	0	0	460	
12	0	0	0	0	453	
13	0	0	0	0	445	
14	0	0	0	0	437	
15	0	0	0	0	429	
0	0	0	0	0	421	
1	0	0	0	0	413	
2	0	0	0	0	403	
3	0	0	0	0	396	
4	0	0	0	0	390	
5	0	0	0	0	384	
6	0	0	0	0	377	
7	0	0	0	0	369	
8	0	0	0	0	362	
9	0	0	0	0	357	
10	0	0	0	0	352	
11	0	0	0	0	344	
12	0	0	0	0	338	
13	0	0	0	0	331	
14	0	0	0	0	325	
15	0	0	0	0	320	
0	0	0	0	0	318	
1	0	0	0	0	316	
2	0	0	0	0	318	
3	0	0	0	0	321	
4	0	0	0	0	325	
5	0	0	0	0	333	
6	0	0	0	0	344	
7	0	0	0	0	358	
8	0	0	0	0	376	
9	0	0	0	0	397	
10	0	0	0	0	418	
11	0	0	0	0	439	
12	0	0	0	0	461	
13	0	0	0	0	485	
14	0	0	0	0	511	
15	0	0	0	0	540	
0	0	0	0	0	570	
1	0	0	0	0	602	
2	0	0	0	0	634	
3	0	0	0	0	668	
4	0	0	0	0	703	
5	0	0	0	0	734	
6	0	0	0	0	758	
7	0	0	0	0	776	
8	0	0	0	0	788	
9	0	0	0	0	795	
10	0	0	0	0	799	
11	0	0	0	0	802	
12	0	0	0	0	803	
13	0	0	0	0	803	
14	0	0	0	0	800	
15	0	0	0	0	795	
0	0	0	0	0	788	
1	0	0	0	0	780	
2	0	0	0	0	771	
3	0	0	0	0	763	
4	0	0	0	0	753	
5	0	0	0	0	744	
6	0	0	0	0	735	
7	0	0	0	0	726	
8	0	0	0	0	717	
9	0	0	0	0	707	
10	0	0	0	0	697	
11	0	0	0	0	687	
12	0	0	0	0	676	
13	0	0	0	0	667	
14	0	0	0	0	656	
15	0	0	0	0	645	
0	0	0	0	0	633	
1	0	0	0	0	620	
2	0	0	0	0	610	
3	0	0	0	0	600	
4	0	0	0	0	590	
5	0	0	0	0	579	
6	0	0	0	0	569	
7	0	0	0	0	559	
8	0	0	0	0	549	
9	0	0	0	0	540	
10	0	0	0	0	531	
11	0	0	0	0	521	
12	0	0	0	0	513	
13	0	0	0	0	506	
14	0	0	0	0	500	
15	0	0	0	0	494	
0	0	0	0	0	490	
1	0	0	0	0	486	
2	0	0	0	0	482	
3	0	0	0	0	478	
4	0	0	0	0	473	
5	0	0	0	0	470	
6	0	0	0	0	467	
7	0	0	0	0	464	
8	0	0	0	0	463	
9	0	0	0	0	460	
10	0	0	0	0	457	
11	0	0	0	0	454	
12	0	0	0	0	452	
13	0	0	0	0	449	
14	0	0	0	0	446	
15	0	0	0	0	444	
0	0	0	0	0	441	
1	0	0	0	0	439	
2	0	0	0	0	438	
3	0	0	0	0	438	
4	0	0	0	0	439	
5	0	0	0	0	440	
6	0	0	0	0	439	
7	0	0	0	0	440	
8	0	0	0	0	440	
9	0	0	0	0	439	
10	0	0	0	0	438	
11	0	0	0	0	438	
12	0	0	0	0	438	
13	0	0	0	0	438	
14	0	0	0	0	437	
15	0	0	0	0	438	
0	0	0	0	0	438	
1	0	0	0	0	439	
2	0	0	0	0	439	
3	0	0	0	0	438	
4	0	0	0	0	439	
5	0	0	0	0	439	
6	0	0	0	0	438	
7	0	0	0	0	438	
8	0	0	0	0	437	
9	0	0	0	0	437	
10	0	0	0	0	437	
11	0	0	0	0	437	
12	0	0	0	0	437	
13	0	0	0	0	437	
14	0	0	0	0	436	
15	0	0	0	0	435	
0	0	0	0	0	435	
1	0	0	0	0	435	
2	0	0	0	0	433	
3	0	0	0	0	434	
4	0	0	0	0	434	
5	0	0	0	0	435	
6	0	0	0	0	435	
7	0	0	0	0	435	
8	0	0	0	0	434	
9	0	0	0	0	433	
10	0	0	0	0	432	
11	0	0	0	0	433	
12	0	0	0	0	434	
13	0	0	0	0	435	
14	0	0	0	0	434	
15	0	0	0	0	434	
0	0	0	0	0	434	
1	0	0	0	0	434	
2	0	0	0	0	433	
3	0	0	0	0	433	
4	0	0	0	0	432	
5	0	0	0	0	432	
6	0	0	0	0	433	
7	0	0	0	0	433	
8	0	0	0	0	433	
9	0	0	0	0	434	
10	0	0	0	0	434	
11	0	0	0	0	433	
12	0	0	0	0	433	
13	0	0	0	0	432	
14	0	0	0	0	432	
15	0	0	0	0	433	
0	0	0	0	0	432	
1	0	0	0	0	433	
2	0	0	0	0	433	
3	0	0	0	0	433	
4	0	0	0	0	432	
5	0	0	0	0	431	
6	0	0	0	0	432	
7	0	0	0	0	431	
8	0	0	0	0	432	
9	0	0	0	0	432	
10	0	0	0	0	432	
11	0	0	0	0	431	
12	0	0	0	0	430	
13	0	0	0	0	429	
14	0	0	0	0	429	
15	0	0	0	0	428	
0	0	0	0	0	428	
1	0	0	0	0	428	
2	0	0	0	0	427	
3	0	0	0	0	427	
4	0	0	0	0	427	
5	0	0	0	0	426	
6	0	0	0	0	425	
7	0	0	0	0	425	
8	0	0	0	0	425	
9	0	0	0	0	425	
10	0	0	0	0	425	
11	0	0	0	0	425	
12	0	0	0	0	425	
13	0	0	0	0	423	
14	0	0	0	0	422	
15	0	0	0	0	420	
0	0	0	0	0	419	
1	0	0	0	0	419	
2	0	0	0	0	419	
3	0	0	0	0	418	
4	0	0	0	0	419	
5	0	0	0	0	418	
6	0	0	0	0	417	
7	0	0	0	0	416	
8	0	0	0	0	415	
9	0	0	0	0	414	
10	0	0	0	0	413	
11	0	0	0	0	412	
12	0	0	0	0	412	
13	0	0	0	0	412	
14	0	0	0	0	412	
15	0	0	0	0	411	
0	0	0	0	0	408	
1	0	0	0	0	406	
2	0	0	0	0	403	
3	0	0	0	0	401	
4	0	0	0	0	400	
5	0	0	0	0	399	
6	0	0	0	0	399	
7	0	0	0	0	399	
8	0	0	0	0	399	
9	0	0	0	0	399	
10	0	0	0	0	398	
11	0	0	0	0	397	
12	0	0	0	0	396	
13	0	0	0	0	395	
14	0	0	0	0	394	
15	0	0	0	0	394	
0	0	0	0	0	394	
1	0	0	0	0	393	
2	0	0	0	0	393	
3	0	0	0	0	395	
4	0	0	0	0	396	
5	0	0	0	0	397	
6	0	0	0	0	397	
7	0	0	0	0	398	
8	0	0	0	0	399	
9	0	0	0	0	401	
10	0	0	0	0	403	
11	0	0	0	0	403	
12	0	0	0	0	404	
13	0	0	0	0	406	
14	0	0	0	0	407	
15	0	0	0	0	407	
0	0	0	0	0	407	
1	0	0	0	0	408	
2	0	0	0	0	409	
3	0	0	0	0	411	
4	0	0	0	0	412	
5	0	0	0	0	412	
6	0	0	0	0	413	
7	0	0	0	0	414	
8	0	0	0	0	417	
9	0	0	0	0	421	
10	0	0	0	0	424	
11	0	0	0	0	426	
12	0	0	0	0	428	
13	0	0	0	0	430	
14	0	0	0	0	432	
15	0	0	0	0	435	
0	0	0	0	0	438	
1	0	0	0	0	440	
2	0	0	0	0	442	
3	0	0	0	0	444	
4	0	0	0	0	446	
5	0	0	0	0	448	
6	0	0	0	0	451	
7	0	0	0	0	454	
8	0	0	0	0	456	
9	0	0	0	0	458	
10	0	0	0	0	461	
11	0	0	0	0	465	
12	0	0	0	0	469	
13	0	0	0	0	473	
14	0	0	0	0	477	
15	0	0	0	0	480	
0	0	0	0	0	483	
1	0	0	0	0	487	
2	0	0	0	0	489	
3	0	0	0	0	490	
4	0	0	0	0	493	
5	0	0	0	0	495	
6	0	0	0	0	499	
7	0	0	0	0	504	
8	0	0	0	0	508	
9	0	0	0	0	511	
10	0	0	0	0	513	
11	0	0	0	0	516	
12	0	0	0	0	519	
13	0	0	0	0	523	
14	0	0	0	0	527	
15	0	0	0	0	530	
0	0	0	0	0	532	
1	0	0	0	0	535	
2	0	0	0	0	539	
3	0	0	0	0	542	
4	0	0	0	0	545	
5	0	0	0	0	547	
6	0	0	0	0	549	
7	0	0	0	0	551	
8	0	0	0	0	554	
9	0	0	0	0	556	
10	0	0	0	0	559	
11	0	0	0	0	561	
12	0	0	0	0	564	
13	0	0	0	0	568	
14	0	0	0	0	570	
15	0	0	0	0	572	
0	0	0	0	0	574	
1	0	0	0	0	575	
2	0	0	0	0	576	
3	0	0	0	0	579	
4	0	0	0	0	580	
5	0	0	0	0	582	
6	0	0	0	0	583	
7	0	0	0	0	584	
8	0	0	0	0	583	
9	0	0	0	0	582	
10	0	0	0	0	583	
11	0	0	0	0	585	
12	0	0	0	0	587	
13	0	0	0	0	588	
14	0	0	0	0	589	
15	0	0	0	0	591	
0	0	0	0	0	592	
1	0	0	0	0	594	
2	0	0	0	0	594	
3	0	0	0	0	594	
4	0	0	0	0	595	
5	0	0	0	0	595	
6	0	0	0	0	594	
7	0	0	0	0	593	
8	0	0	0	0	592	
9	0	0	0	0	591	
10	0	0	0	0	591	
11	0	0	0	0	591	
12	0	0	0	0	591	
13	0	0	0	0	591	
14	0	0	0	0	592	
15	0	0	0	0	592	
0	0	0	0	0	593	
1	0	0	0	0	594	
2	0	0	0	0	594	
3	0	0	0	0	592	
4	0	0	0	0	591	
5	0	0	0	0	590	
6	0	0	0	0	590	
7	0	0	0	0	589	
8	0	0	0	0	588	
9	0	0	0	0	588	
10	0	0	0	0	587	
11	0	0	0	0	586	
12	0	0	0	0	585	
13	0	0	0	0	584	
14	0	0	0	0	584	
15	0	0	0	0	586	
0	0	0	0	0	586	
1	0	0	0	0	587	
2	0	0	0	0	586	
3	0	0	0	0	586	
4	0	0	0	0	585	
5	0	0	0	0	583	
6	0	0	0	0	582	
7	0	0	0	0	581	
8	0	0	0	0	579	
9	0	0	0	0	579	
10	0	0	0	0	578	
11	0	0	0	0	578	
12	0	0	0	0	577	
13	0	0	0	0	576	
14	0	0	0	0	575	
15	0	0	0	0	575	
0	0	0	0	0	576	
1	0	0	0	0	577	
2	0	0	0	0	576	
3	0	0	0	0	577	
4	0	0	0	0	576	
5	0	0	0	0	576	
6	0	0	0	0	575	
7	0	0	0	0	574	
8	0	0	0	0	573	
9	0	0	0	0	571	
10	0	0	0	0	571	
11	0	0	0	0	570	
12	0	0	0	0	569	
13	0	0	0	0	568	
14	0	0	0	0	567	
15	0	0	0	0	567	
0	0	0	0	0	566	
1	0	0	0	0	566	
2	0	0	0	0	567	
3	0	0	0	0	566	
4	0	0	0	0	566	
5	0	0	0	0	566	
6	0	0	0	0	565	
7	0	0	0	0	563	
8	0	0	0	0	560	
9	0	0	0	0	558	
10	0	0	0	0	559	
11	0	0	0	0	558	
12	0	0	0	0	556	
13	0	0	0	0	556	
14	0	0	0	0	555	
15	0	0	0	0	555	
0	0	0	0	0	555	
1	0	0	0	0	554	
2	0	0	0	0	554	
3	0	0	0	0	553	
4	0	0	0	0	553	
5	0	0	0	0	552	
6	0	0	0	0	552	
7	0	0	0	0	551	
8	0	0	0	0	551	
9	0	0	0	0	550	
10	0	0	0	0	550	
11	0	0	0	0	549	
12	0	0	0	0	548	
13	0	0	0	0	548	
14	0	0	0	0	547	
15	0	0	0	0	546	
0	0	0	0	0	546	
1	0	0	0	0	544	
2	0	0	0	0	543	
3	0	0	0	0	544	
4	0	0	0	0	544	
5	0	0	0	0	543	
6	0	0	0	0	543	
7	0	0	0	0	543	
8	0	0	0	0	543	
9	0	0	0	0	542	
10	0	0	0	0	542	
11	0	0	0	0	541	
12	0	0	0	0	540	
13	0	0	0	0	539	
14	0	0	0	0	538	
15	0	0	0	0	538	
0	0	0	0	0	538	
1	0	0	0	0	539	
2	0	0	0	0	540	
3	0	0	0	0	540	
4	0	0	0	0	539	
5	0	0	0	0	538	
6	0	0	0	0	537	
7	0	0	0	0	536	
8	0	0	0	0	536	
9	0	0	0	0	536	
10	0	0	0	0	534	
11	0	0	0	0	535	
12	0	0	0	0	534	
13	0	0	0	0	534	
14	0	0	0	0	534	
15	0	0	0	0	534	
0	0	0	0	0	533	
1	0	0	0	0	533	
2	0	0	0	0	532	
3	0	0	0	0	532	
4	0	0	0	0	532	
5	0	0	0	0	532	
6	0	0	0	0	533	
7	0	0	0	0	534	
8	0	0	0	0	534	
9	0	0	0	0	534	
10	0	0	0	0	534	
11	0	0	0	0	533	
12	0	0	0	0	533	
13	0	0	0	0	534	
14	0	0	0	0	533	
15	0	0	0	0	531	
0	0	0	0	0	529	
1	0	0	0	0	529	
2	0	0	0	0	529	
3	0	0	0	0	529	
4	0	0	0	0	529	
5	0	0	0	0	529	
6	0	0	0	0	529	
7	0	0	0	0	528	
8	0	0	0	0	528	
9	0	0	0	0	527	
10	0	0	0	0	527	
11	0	0	0	0	526	
12	0	0	0	0	526	
13	0	0	0	0	525	
14	0	0	0	0	524	
15	0	0	0	0	525	
0	0	0	0	0	524	
1	0	0	0	0	524	
2	0	0	0	0	524	
3	0	0	0	0	525	
4	0	0	0	0	525	
5	0	0	0	0	526	
6	0	0	0	0	527	
7	0	0	0	0	526	
8	0	0	0	0	526	
9	0	0	0	0	525	
10	0	0	0	0	525	
11	0	0	0	0	525	
12	0	0	0	0	524	
13	0	0	0	0	524	
14	0	0	0	0	522	
15	0	0	0	0	521	
0	0	0	0	0	519	
1	0	0	0	0	519	
2	0	0	0	0	519	
3	0	0	0	0	519	
4	0	0	0	0	519	
5	0	0	0	0	520	
6	0	0	0	0	521	
7	0	0	0	0	521	
8	0	0	0	0	522	
9	0	0	0	0	523	
10	0	0	0	0	523	
11	0	0	0	0	522	
12	0	0	0	0	521	
13	0	0	0	0	521	
14	0	0	0	0	519	
15	0	0	0	0	519	
0	0	0	0	0	519	
1	0	0	0	0	519	
2	0	0	0	0	519	
3	0	0	0	0	519	
4	0	0	0	0	520	
5	0	0	0	0	520	
6	0	0	0	0	520	
7	0	0	0	0	521	
8	0	0	0	0	520	
9	0	0	0	0	520	
10	0	0	0	0	520	
11	0	0	0	0	519	
12	0	0	0	0	519	
13	0	0	0	0	518	
14	0	0	0	0	518	
15	0	0	0	0	518	
0	0	0	0	0	519	
1	0	0	0	0	518	
2	0	0	0	0	518	
3	0	0	0	0	518	
4	0	0	0	0	519	
5	0	0	0	0	520	
6	0	0	0	0	520	
7	0	0	0	0	521	
8	0	0	0	0	522	
9	0	0	0	0	521	
10	0	0	0	0	520	
11	0	0	0	0	520	
12	0	0	0	0	519	
13	0	0	0	0	517	
14	0	0	0	0	516	
15	0	0	0	0	516	
0	0	0	0	0	516	
1	0	0	0	0	515	
2	0	0	0	0	514	
3	0	0	0	0	514	
4	0	0	0	0	514	
5	0	0	0	0	515	
6	0	0	0	0	515	
7	0	0	0	0	515	
8	0	0	0	0	516	
9	0	0	0	0	516	
10	0	0	0	0	516	
11	0	0	0	0	515	
12	0	0	0	0	515	
13	0	0	0	0	514	
14	0	0	0	0	513	
15	0	0	0	0	513	
0	0	0	0	0	513	
1	0	0	0	0	513	
2	0	0	0	0	512	
3	0	0	0	0	512	
4	0	0	0	0	512	
5	0	0	0	0	512	
6	0	0	0	0	511	
7	0	0	0	0	511	
8	0	0	0	0	511	
9	0	0	0	0	512	
10	0	0	0	0	514	
11	0	0	0	0	515	
12	0	0	0	0	516	
13	0	0	0	0	516	
14	0	0	0	0	516	
15	0	0	0	0	516	
0	0	0	0	0	516	
1	0	0	0	0	516	
2	0	0	0	0	515	
3	0	0	0	0	515	
4	0	0	0	0	514	
5	0	0	0	0	514	
6	0	0	0	0	513	
7	0	0	0	0	514	
8	0	0	0	0	516	
9	0	0	0	0	516	
10	0	0	0	0	516	
11	0	0	0	0	515	
12	0	0	0	0	515	
13	0	0	0	0	515	
14	0	0	0	0	516	
15	0	0	0	0	514	
0	0	0	0	0	512	
1	0	0	0	0	512	
2	0	0	0	0	512	
3	0	0	0	0	511	
4	0	0	0	0	512	
5	0	0	0	0	514	
6	0	0	0	0	514	
7	0	0	0	0	515	
8	0	0	0	0	515	
9	0	0	0	0	515	
10	0	0	0	0	515	
11	0	0	0	0	514	
12	0	0	0	0	514	
13	0	0	0	0	514	
14	0	0	0	0	515	
15	0	0	0	0	514	
0	0	0	0	0	514	
1	0	0	0	0	514	
2	0	0	0	0	513	
3	0	0	0	0	513	
4	0	0	0	0	512	
5	0	0	0	0	512	
6	0	0	0	0	513	
7	0	0	0	0	513	
8	0	0	0	0	513	
9	0	0	0	0	512	
10	0	0	0	0	512	
11	0	0	0	0	512	
12	0	0	0	0	512	
13	0	0	0	0	513	
14	0	0	0	0	514	
15	0	0	0	0	514	
0	0	0	0	0	513	
1	0	0	0	0	511	
2	0	0	0	0	510	
3	0	0	0	0	508	
4	0	0	0	0	508	
5	0	0	0	0	507	
6	0	0	0	0	508	
7	0	0	0	0	509	
8	0	0	0	0	510	
9	0	0	0	0	510	
10	0	0	0	0	510	
11	0	0	0	0	510	
12	0	0	0	0	510	
13	0	0	0	0	509	
14	0	0	0	0	508	
15	0	0	0	0	508	
0	0	0	0	0	508	
1	0	0	0	0	508	
2	0	0	0	0	508	
3	0	0	0	0	508	
4	0	0	0	0	507	
5	0	0	0	0	507	
6	0	0	0	0	507	
7	0	0	0	0	508	
8	0	0	0	0	508	
9	0	0	0	0	509	
10	0	0	0	0	511	
11	0	0	0	0	512	
12	0	0	0	0	512	
13	0	0	0	0	511	
14	0	0	0	0	511	
15	0	0	0	0	511	
0	0	0	0	0	510	
1	0	0	0	0	509	
2	0	0	0	0	509	
3	0	0	0	0	509	
4	0	0	0	0	508	
5	0	0	0	0	507	
6	0	0	0	0	506	
7	0	0	0	0	506	
8	0	0	0	0	507	
9	0	0	0	0	507	
10	0	0	0	0	507	
11	0	0	0	0	507	
12	0	0	0	0	507	
13	0	0	0	0	507	
14	0	0	0	0	506	
15	0	0	0	0	506	
0	0	0	0	0	507	
1	0	0	0	0	506	
2	0	0	0	0	507	
3	0	0	0	0	507	
4	0	0	0	0	508	
5	0	0	0	0	508	
6	0	0	0	0	509	
7	0	0	0	0	509	
8	0	0	0	0	508	
9	0	0	0	0	508	
10	0	0	0	0	509	
11	0	0	0	0	509	
12	0	0	0	0	508	
13	0	0	0	0	508	
14	0	0	0	0	508	
15	0	0	0	0	509	
0	0	0	0	0	509	
1	0	0	0	0	508	
2	0	0	0	0	508	
3	0	0	0	0	506	
4	0	0	0	0	504	
5	0	0	0	0	504	
6	0	0	0	0	504	
7	0	0	0	0	504	
8	0	0	0	0	504	
9	0	0	0	0	505	
10	0	0	0	0	506	
11	0	0	0	0	507	
12	0	0	0	0	507	
13	0	0	0	0	508	
14	0	0	0	0	507	
15	0	0	0	0	507	
0	0	0	0	0	507	
1	0	0	0	0	507	
2	0	0	0	0	507	
3	0	0	0	0	506	
4	0	0	0	0	506	
5	0	0	0	0	505	
6	0	0	0	0	505	
7	0	0	0	0	504	
8	0	0	0	0	502	
9	0	0	0	0	502	
10	0	0	0	0	504	
11	0	0	0	0	504	
12	0	0	0	0	506	
13	0	0	0	0	507	
14	0	0	0	0	508	
15	0	0	0	0	509	
0	0	0	0	0	509	
1	0	0	0	0	509	
2	0	0	0	0	508	
3	0	0	0	0	508	
4	0	0	0	0	508	
5	0	0	0	0	507	
6	0	0	0	0	507	
7	0	0	0	0	507	
8	0	0	0	0	506	
9	0	0	0	0	507	
10	0	0	0	0	507	
11	0	0	0	0	508	
12	0	0	0	0	508	
13	0	0	0	0	508	
14	0	0	0	0	510	
15	0	0	0	0	509	
0	0	0	0	0	508	
1	0	0	0	0	507	
2	0	0	0	0	506	
3	0	0	0	0	504	
4	0	0	0	0	503	
5	0	0	0	0	503	
6	0	0	0	0	501	
7	0	0	0	0	499	
8	0	0	0	0	498	
9	0	0	0	0	497	
10	0	0	0	0	496	
11	0	0	0	0	495	
12	0	0	0	0	493	
13	0	0	0	0	492	
14	0	0	0	0	492	
15	0	0	0	0	492	
0	0	0	0	0	492	
1	0	0	0	0	492	
2	0	0	0	0	492	
3	0	0	0	0	491	
4	0	0	0	0	489	
5	0	0	0	0	488	
6	0	0	0	0	487	
7	0	0	0	0	485	
8	0	0	0	0	485	
9	0	0	0	0	484	
10	0	0	0	0	483	
11	0	0	0	0	482	
12	0	0	0	0	481	
13	0	0	0	0	480	
14	0	0	0	0	480	
15	0	0	0	0	480	
0	0	0	0	0	481	
1	0	0	0	0	481	
2	0	0	0	0	481	
3	0	0	0	0	481	
4	0	0	0	0	481	
5	0	0	0	0	481	
6	0	0	0	0	481	
7	0	0	0	0	481	
8	0	0	0	0	481	
9	0	0	0	0	481	
10	0	0	0	0	482	
11	0	0	0	0	484	
12	0	0	0	0	486	
13	0	0	0	0	487	
14	0	0	0	0	488	
15	0	0	0	0	491	
0	0	0	0	0	492	
1	0	0	0	0	494	
2	0	0	0	0	496	
3	0	0	0	0	499	
4	0	0	0	0	500	
5	0	0	0	0	501	
6	0	0	0	0	502	
7	0	0	0	0	503	
8	0	0	0	0	503	
9	0	0	0	0	504	
10	0	0	0	0	505	
11	0	0	0	0	507	
12	0	0	0	0	508	
13	0	0	0	0	510	
14	0	0	0	0	512	
15	0	0	0	0	514	
0	0	0	0	0	517	
1	0	0	0	0	519	
2	0	0	0	0	520	
3	0	0	0	0	521	
4	0	0	0	0	521	
5	0	0	0	0	520	
6	0	0	0	0	520	
7	0	0	0	0	519	
8	0	0	0	0	519	
9	0	0	0	0	519	
10	0	0	0	0	519	
11	0	0	0	0	519	
12	0	0	0	0	519	
13	0	0	0	0	519	
14	0	0	0	0	519	
15	0	0	0	0	519	
0	0	0	0	0	518	
1	0	0	0	0	518	
2	0	0	0	0	518	
3	0	0	0	0	518	
4	0	0	0	0	517	
5	0	0	0	0	517	
6	0	0	0	0	517	
7	0	0	0	0	517	
8	0	0	0	0	518	
9	0	0	0	0	518	
10	0	0	0	0	517	
11	0	0	0	0	518	
12	0	0	0	0	519	
13	0	0	0	0	521	
14	0	0	0	0	520	
15	0	0	0	0	519	
0	0	0	0	0	519	
1	0	0	0	0	517	
2	0	0	0	0	516	
3	0	0	0	0	515	
4	0	0	0	0	514	
5	0	0	0	0	513	
6	0	0	0	0	510	
7	0	0	0	0	506	
8	0	0	0	0	502	
9	0	0	0	0	497	
10	0	0	0	0	491	
11	0	0	0	0	485	
12	0	0	0	0	478	
13	0	0	0	0	470	
14	0	0	0	0	463	
15	0	0	0	0	456	
0	0	0	0	0	447	
1	0	0	0	0	439	
2	0	0	0	0	431	
3	0	0	0	0	423	
4	0	0	0	0	414	
5	0	0	0	0	404	
6	0	0	0	0	395	
7	0	0	0	0	389	
8	0	0	0	0	384	
9	0	0	0	0	379	
10	0	0	0	0	374	
11	0	0	0	0	370	
12	0	0	0	0	366	
13	0	0	0	0	360	
14	0	0	0	0	353	
15	0	0	0	0	345	
0	0	0	0	0	339	
1	0	0	0	0	333	
2	0	0	0	0	330	
3	0	0	0	0	328	
4	0	0	0	0	330	
5	0	0	0	0	333	
6	0	0	0	0	338	
7	0	0	0	0	346	
8	0	0	0	0	356	
9	0	0	0	0	370	
10	0	0	0	0	388	
11	0	0	0	0	408	
12	0	0	0	0	430	
13	0	0	0	0	453	
14	0	0	0	0	478	
15	0	0	0	0	504	
0	0	0	0	0	532	
1	0	0	0	0	562	
2	0	0	0	0	593	
3	0	0	0	0	625	
4	0	0	0	0	657	
5	0	0	0	0	691	
6	0	0	0	0	724	
7	0	0	0	0	753	
8	0	0	0	0	777	
9	0	0	0	0	795	
10	0	0	0	0	808	
11	0	0	0	0	816	
12	0	0	0	0	823	
13	0	0	0	0	828	
14	0	0	0	0	828	
15	0	0	0	0	827	
0	0	0	0	0	823	
1	0	0	0	0	816	
2	0	0	0	0	809	
3	0	0	0	0	800	
4	0	0	0	0	792	
5	0	0	0	0	782	
6	0	0	0	0	773	
7	0	0	0	0	763	
8	0	0	0	0	753	
9	0	0	0	0	743	
10	0	0	0	0	733	
11	0	0	0	0	722	
12	0	0	0	0	712	
13	0	0	0	0	702	
14	0	0	0	0	692	
15	0	0	0	0	682	
0	0	0	0	0	671	
1	0	0	0	0	659	
2	0	0	0	0	647	
3	0	0	0	0	635	
4	0	0	0	0	623	
5	0	0	0	0	612	
6	0	0	0	0	601	
7	0	0	0	0	592	
8	0	0	0	0	583	
9	0	0	0	0	575	
10	0	0	0	0	568	
11	0	0	0	0	559	
12	0	0	0	0	549	
13	0	0	0	0	541	
14	0	0	0	0	532	
15	0	0	0	0	524	
0	0	0	0	0	516	
1	0	0	0	0	509	
2	0	0	0	0	502	
3	0	0	0	0	496	
4	0	0	0	0	491	
5	0	0	0	0	487	
6	0	0	0	0	483	
7	0	0	0	0	480	
8	0	0	0	0	477	
9	0	0	0	0	473	
10	0	0	0	0	471	
11	0	0	0	0	467	
12	0	0	0	0	465	
13	0	0	0	0	463	
14	0	0	0	0	461	
15	0	0	0	0	459	
0	0	0	0	0	457	
1	0	0	0	0	455	
2	0	0	0	0	454	
3	0	0	0	0	454	
4	0	0	0	0	453	
5	0	0	0	0	452	
6	0	0	0	0	451	
7	0	0	0	0	450	
8	0	0	0	0	449	
9	0	0	0	0	449	
10	0	0	0	0	449	
11	0	0	0	0	448	
12	0	0	0	0	449	
13	0	0	0	0	448	
14	0	0	0	0	449	
15	0	0	0	0	450	
0	0	0	0	0	448	
1	0	0	0	0	446	
2	0	0	0	0	444	
3	0	0	0	0	443	
4	0	0	0	0	444	
5	0	0	0	0	444	
6	0	0	0	0	445	
7	0	0	0	0	445	
8	0	0	0	0	445	
9	0	0	0	0	445	
10	0	0	0	0	445	
11	0	0	0	0	444	
12	0	0	0	0	444	
13	0	0	0	0	445	
14	0	0	0	0	444	
15	0	0	0	0	443	
0	0	0	0	0	443	
1	0	0	0	0	443	
2	0	0	0	0	441	
3	0	0	0	0	441	
4	0	0	0	0	441	
5	0	0	0	0	442	
6	0	0	0	0	442	
7	0	0	0	0	443	
8	0	0	0	0	444	
9	0	0	0	0	444	
10	0	0	0	0	444	
11	0	0	0	0	444	
12	0	0	0	0	444	
13	0	0	0	0	445	
14	0	0	0	0	445	
15	0	0	0	0	445	
0	0	0	0	0	444	
1	0	0	0	0	443	
2	0	0	0	0	442	
3	0	0	0	0	441	
4	0	0	0	0	442	
5	0	0	0	0	442	
6	0	0	0	0	442	
7	0	0	0	0	442	
8	0	0	0	0	442	
9	0	0	0	0	441	
10	0	0	0	0	442	
11	0	0	0	0	442	
12	0	0	0	0	442	
13	0	0	0	0	442	
14	0	0	0	0	443	
15	0	0	0	0	443	
0	0	0	0	0	442	
1	0	0	0	0	440	
2	0	0	0	0	440	
3	0	0	0	0	439	
4	0	0	0	0	439	
5	0	0	0	0	440	
6	0	0	0	0	440	
7	0	0	0	0	441	
8	0	0	0	0	441	
9	0	0	0	0	442	
10	0	0	0	0	442	
11	0	0	0	0	442	
12	0	0	0	0	441	
13	0	0	0	0	441	
14	0	0	0	0	440	
15	0	0	0	0	440	
0	0	0	0	0	440	
1	0	0	0	0	440	
2	0	0	0	0	438	
3	0	0	0	0	436	
4	0	0	0	0	435	
5	0	0	0	0	435	
6	0	0	0	0	435	
7	0	0	0	0	435	
8	0	0	0	0	435	
9	0	0	0	0	435	
10	0	0	0	0	434	
11	0	0	0	0	432	
12	0	0	0	0	431	
13	0	0	0	0	431	
14	0	0	0	0	430	
15	0	0	0	0	429	
0	0	0	0	0	429	
1	0	0	0	0	428	
2	0	0	0	0	425	
3	0	0	0	0	423	
4	0	0	0	0	423	
5	0	0	0	0	422	
6	0	0	0	0	422	
7	0	0	0	0	421	
8	0	0	0	0	420	
9	0	0	0	0	420	
10	0	0	0	0	420	
11	0	0	0	0	419	
12	0	0	0	0	418	
13	0	0	0	0	417	
14	0	0	0	0	416	
15	0	0	0	0	415	
0	0	0	0	0	412	
1	0	0	0	0	411	
2	0	0	0	0	409	
3	0	0	0	0	409	
4	0	0	0	0	409	
5	0	0	0	0	408	
6	0	0	0	0	407	
7	0	0	0	0	407	
8	0	0	0	0	407	
9	0	0	0	0	406	
10	0	0	0	0	407	
11	0	0	0	0	407	
12	0	0	0	0	407	
13	0	0	0	0	406	
14	0	0	0	0	404	
15	0	0	0	0	403	
0	0	0	0	0	403	
1	0	0	0	0	402	
2	0	0	0	0	402	
3	0	0	0	0	402	
4	0	0	0	0	402	
5	0	0	0	0	403	
6	0	0	0	0	403	
7	0	0	0	0	404	
8	0	0	0	0	405	
9	0	0	0	0	406	
10	0	0	0	0	407	
11	0	0	0	0	408	
12	0	0	0	0	409	
13	0	0	0	0	409	
14	0	0	0	0	411	
15	0	0	0	0	414	
0	0	0	0	0	415	
1	0	0	0	0	416	
2	0	0	0	0	417	
3	0	0	0	0	417	
4	0	0	0	0	418	
5	0	0	0	0	420	
6	0	0	0	0	422	
7	0	0	0	0	423	
8	0	0	0	0	424	
9	0	0	0	0	426	
10	0	0	0	0	428	
11	0	0	0	0	432	
12	0	0	0	0	434	
13	0	0	0	0	435	
14	0	0	0	0	436	
15	0	0	0	0	438	
0	0	0	0	0	439	
1	0	0	0	0	440	
2	0	0	0	0	443	
3	0	0	0	0	445	
4	0	0	0	0	446	
5	0	0	0	0	448	
6	0	0	0	0	450	
7	0	0	0	0	452	
8	0	0	0	0	454	
9	0	0	0	0	456	
10	0	0	0	0	459	
11	0	0	0	0	462	
12	0	0	0	0	465	
13	0	0	0	0	468	
14	0	0	0	0	472	
15	0	0	0	0	475	
0	0	0	0	0	479	
1	0	0	0	0	482	
2	0	0	0	0	486	
3	0	0	0	0	489	
4	0	0	0	0	493	
5	0	0	0	0	496	
6	0	0	0	0	499	
7	0	0	0	0	502	
8	0	0	0	0	504	
9	0	0	0	0	507	
10	0	0	0	0	511	
11	0	0	0	0	514	
12	0	0	0	0	517	
13	0	0	0	0	522	
14	0	0	0	0	526	
15	0	0	0	0	529	
0	0	0	0	0	532	
1	0	0	0	0	534	
2	0	0	0	0	537	
3	0	0	0	0	540	
4	0	0	0	0	542	
5	0	0	0	0	545	
6	0	0	0	0	549	
7	0	0	0	0	552	
8	0	0	0	0	554	
9	0	0	0	0	556	
10	0	0	0	0	558	
11	0	0	0	0	560	
12	0	0	0	0	563	
13	0	0	0	0	566	
14	0	0	0	0	569	
15	0	0	0	0	571	
0	0	0	0	0	573	
1	0	0	0	0	575	
2	0	0	0	0	576	
3	0	0	0	0	579	
4	0	0	0	0	581	
5	0	0	0	0	583	
6	0	0	0	0	584	
7	0	0	0	0	585	
8	0	0	0	0	585	
9	0	0	0	0	587	
10	0	0	0	0	588	
11	0	0	0	0	589	
12	0	0	0	0	590	
13	0	0	0	0	591	
14	0	0	0	0	593	
15	0	0	0	0	595	
0	0	0	0	0	596	
1	0	0	0	0	597	
2	0	0	0	0	597	
3	0	0	0	0	597	
4	0	0	0	0	598	
5	0	0	0	0	600	
6	0	0	0	0	601	
7	0	0	0	0	600	
8	0	0	0	0	600	
9	0	0	0	0	599	
10	0	0	0	0	599	
11	0	0	0	0	599	
12	0	0	0	0	600	
13	0	0	0	0	601	
14	0	0	0	0	602	
15	0	0	0	0	602	
0	0	0	0	0	601	
1	0	0	0	0	601	
2	0	0	0	0	601	
3	0	0	0	0	600	
4	0	0	0	0	598	
5	0	0	0	0	598	
6	0	0	0	0	598	
7	0	0	0	0	597	
8	0	0	0	0	595	
9	0	0	0	0	595	
10	0	0	0	0	593	
11	0	0	0	0	592	
12	0	0	0	0	593	
13	0	0	0	0	593	
14	0	0	0	0	593	
15	0	0	0	0	594	
0	0	0	0	0	595	
1	0	0	0	0	595	
2	0	0	0	0	596	
3	0	0	0	0	595	
4	0	0	0	0	595	
5	0	0	0	0	594	
6	0	0	0	0	593	
7	0	0	0	0	590	
8	0	0	0	0	588	
9	0	0	0	0	587	
10	0	0	0	0	585	
11	0	0	0	0	585	
12	0	0	0	0	583	
13	0	0	0	0	583	
14	0	0	0	0	583	
15	0	0	0	0	582	
0	0	0	0	0	582	
1	0	0	0	0	580	
2	0	0	0	0	579	
3	0	0	0	0	578	
4	0	0	0	0	578	
5	0	0	0	0	577	
6	0	0	0	0	576	
7	0	0	0	0	576	
8	0	0	0	0	575	
9	0	0	0	0	574	
10	0	0	0	0	573	
11	0	0	0	0	572	
12	0	0	0	0	572	
13	0	0	0	0	572	
14	0	0	0	0	572	
15	0	0	0	0	573	
0	0	0	0	0	573	
1	0	0	0	0	573	
2	0	0	0	0	572	
3	0	0	0	0	572	
4	0	0	0	0	572	
5	0	0	0	0	569	
6	0	0	0	0	568	
7	0	0	0	0	568	
8	0	0	0	0	567	
9	0	0	0	0	566	
10	0	0	0	0	565	
11	0	0	0	0	565	
12	0	0	0	0	563	
13	0	0	0	0	561	
14	0	0	0	0	559	
15	0	0	0	0	557	
0	0	0	0	0	556	
1	0	0	0	0	556	
2	0	0	0	0	557	
3	0	0	0	0	558	
4	0	0	0	0	557	
5	0	0	0	0	558	
6	0	0	0	0	558	
7	0	0	0	0	558	
8	0	0	0	0	556	
9	0	0	0	0	555	
10	0	0	0	0	553	
11	0	0	0	0	552	
12	0	0	0	0	551	
13	0	0	0	0	550	
14	0	0	0	0	550	
15	0	0	0	0	551	
0	0	0	0	0	551	
1	0	0	0	0	550	
2	0	0	0	0	551	
3	0	0	0	0	551	
4	0	0	0	0	551	
5	0	0	0	0	550	
6	0	0	0	0	549	
7	0	0	0	0	550	
8	0	0	0	0	549	
9	0	0	0	0	550	
10	0	0	0	0	549	
11	0	0	0	0	547	
12	0	0	0	0	545	
13	0	0	0	0	545	
14	0	0	0	0	543	
15	0	0	0	0	543	
0	0	0	0	0	542	
1	0	0	0	0	541	
2	0	0	0	0	541	
3	0	0	0	0	542	
4	0	0	0	0	541	
5	0	0	0	0	541	
6	0	0	0	0	541	
7	0	0	0	0	539	
8	0	0	0	0	538	
9	0	0	0	0	537	
10	0	0	0	0	537	
11	0	0	0	0	538	
12	0	0	0	0	537	
13	0	0	0	0	537	
14	0	0	0	0	538	
15	0	0	0	0	537	
0	0	0	0	0	536	
1	0	0	0	0	535	
2	0	0	0	0	536	
3	0	0	0	0	537	
4	0	0	0	0	537	
5	0	0	0	0	537	
6	0	0	0	0	537	
7	0	0	0	0	538	
8	0	0	0	0	539	
9	0	0	0	0	537	
10	0	0	0	0	536	
11	0	0	0	0	536	
12	0	0	0	0	534	
13	0	0	0	0	531	
14	0	0	0	0	529	
15	0	0	0	0	528	
0	0	0	0	0	528	
1	0	0	0	0	527	
2	0	0	0	0	527	
3	0	0	0	0	526	
4	0	0	0	0	527	
5	0	0	0	0	528	
6	0	0	0	0	529	
7	0	0	0	0	529	
8	0	0	0	0	529	
9	0	0	0	0	530	
10	0	0	0	0	529	
11	0	0	0	0	529	
12	0	0	0	0	528	
13	0	0	0	0	527	
14	0	0	0	0	527	
15	0	0	0	0	527	
0	0	0	0	0	527	
1	0	0	0	0	527	
2	0	0	0	0	527	
3	0	0	0	0	528	
4	0	0	0	0	527	
5	0	0	0	0	527	
6	0	0	0	0	526	
7	0	0	0	0	527	
8	0	0	0	0	527	
9	0	0	0	0	527	
10	0	0	0	0	528	
11	0	0	0	0	529	
12	0	0	0	0	529	
13	0	0	0	0	528	
14	0	0	0	0	526	
15	0	0	0	0	524	
0	0	0	0	0	523	
1	0	0	0	0	523	
2	0	0	0	0	524	
3	0	0	0	0	524	
4	0	0	0	0	524	
5	0	0	0	0	523	
6	0	0	0	0	524	
7	0	0	0	0	525	
8	0	0	0	0	526	
9	0	0	0	0	526	
10	0	0	0	0	526	
11	0	0	0	0	525	
12	0	0	0	0	524	
13	0	0	0	0	524	
14	0	0	0	0	521	
15	0	0	0	0	520	
0	0	0	0	0	520	
1	0	0	0	0	521	
2	0	0	0	0	522	
3	0	0	0	0	523	
4	0	0	0	0	523	
5	0	0	0	0	522	
6	0	0	0	0	522	
7	0	0	0	0	522	
8	0	0	0	0	521	
9	0	0	0	0	520	
10	0	0	0	0	522	
11	0	0	0	0	523	
12	0	0	0	0	524	
13	0	0	0	0	523	
14	0	0	0	0	521	
15	0	0	0	0	520	
0	0	0	0	0	520	
1	0	0	0	0	520	
2	0	0	0	0	519	
3	0	0	0	0	519	
4	0	0	0	0	520	
5	0	0	0	0	520	
6	0	0	0	0	520	
7	0	0	0	0	521	
8	0	0	0	0	521	
9	0	0	0	0	521	
10	0	0	0	0	521	
11	0	0	0	0	520	
12	0	0	0	0	521	
13	0	0	0	0	520	
14	0	0	0	0	518	
15	0	0	0	0	518	
0	0	0	0	0	517	
1	0	0	0	0	518	
2	0	0	0	0	518	
3	0	0	0	0	517	
4	0	0	0	0	517	
5	0	0	0	0	516	
6	0	0	0	0	516	
7	0	0	0	0	518	
8	0	0	0	0	519	
9	0	0	0	0	520	
10	0	0	0	0	520	
11	0	0	0	0	520	
12	0	0	0	0	519	
13	0	0	0	0	519	
14	0	0	0	0	517	
15	0	0	0	0	516	
0	0	0	0	0	515	
1	0	0	0	0	515	
2	0	0	0	0	516	
3	0	0	0	0	516	
4	0	0	0	0	516	
5	0	0	0	0	516	
6	0	0	0	0	515	
7	0	0	0	0	514	
8	0	0	0	0	515	
9	0	0	0	0	517	
10	0	0	0	0	518	
11	0	0	0	0	518	
12	0	0	0	0	518	
13	0	0	0	0	518	
14	0	0	0	0	518	
15	0	0	0	0	516	
0	0	0	0	0	516	
1	0	0	0	0	515	
2	0	0	0	0	515	
3	0	0	0	0	513	
4	0	0	0	0	512	
5	0	0	0	0	511	
6	0	0	0	0	511	
7	0	0	0	0	512	
8	0	0	0	0	513	
9	0	0	0	0	514	
10	0	0	0	0	513	
11	0	0	0	0	514	
12	0	0	0	0	513	
13	0	0	0	0	513	
14	0	0	0	0	513	
15	0	0	0	0	513	
0	0	0	0	0	514	
1	0	0	0	0	514	
2	0	0	0	0	513	
3	0	0	0	0	512	
4	0	0	0	0	512	
5	0	0	0	0	512	
6	0	0	0	0	512	
7	0	0	0	0	511	
8	0	0	0	0	511	
9	0	0	0	0	511	
10	0	0	0	0	511	
11	0	0	0	0	510	
12	0	0	0	0	509	
13	0	0	0	0	509	
14	0	0	0	0	509	
15	0	0	0	0	508	
0	0	0	0	0	508	
1	0	0	0	0	508	
2	0	0	0	0	508	
3	0	0	0	0	508	
4	0	0	0	0	508	
5	0	0	0	0	507	
6	0	0	0	0	506	
7	0	0	0	0	506	
8	0	0	0	0	507	
9	0	0	0	0	508	
10	0	0	0	0	508	
11	0	0	0	0	508	
12	0	0	0	0	508	
13	0	0	0	0	508	
14	0	0	0	0	508	
15	0	0	0	0	508	
0	0	0	0	0	508	
1	0	0	0	0	509	
2	0	0	0	0	509	
3	0	0	0	0	508	
4	0	0	0	0	505	
5	0	0	0	0	504	
6	0	0	0	0	503	
7	0	0	0	0	504	
8	0	0	0	0	504	
9	0	0	0	0	505	
10	0	0	0	0	505	
11	0	0	0	0	507	
12	0	0	0	0	508	
13	0	0	0	0	508	
14	0	0	0	0	507	
15	0	0	0	0	506	
0	0	0	0	0	504	
1	0	0	0	0	504	
2	0	0	0	0	504	
3	0	0	0	0	504	
4	0	0	0	0	504	
5	0	0	0	0	503	
6	0	0	0	0	503	
7	0	0	0	0	502	
8	0	0	0	0	503	
9	0	0	0	0	504	
10	0	0	0	0	504	
11	0	0	0	0	504	
12	0	0	0	0	505	
13	0	0	0	0	507	
14	0	0	0	0	508	
15	0	0	0	0	508	
0	0	0	0	0	508	
1	0	0	0	0	509	
2	0	0	0	0	511	
3	0	0	0	0	511	
4	0	0	0	0	511	
5	0	0	0	0	509	
6	0	0	0	0	508	
7	0	0	0	0	507	
8	0	0	0	0	507	
9	0	0	0	0	505	
10	0	0	0	0	505	
11	0	0	0	0	505	
12	0	0	0	0	505	
13	0	0	0	0	505	
14	0	0	0	0	505	
15	0	0	0	0	504	
0	0	0	0	0	503	
1	0	0	0	0	503	
2	0	0	0	0	504	
3	0	0	0	0	503	
4	0	0	0	0	502	
5	0	0	0	0	502	
6	0	0	0	0	502	
7	0	0	0	0	503	
8	0	0	0	0	504	
9	0	0	0	0	502	
10	0	0	0	0	502	
11	0	0	0	0	502	
12	0	0	0	0	503	
13	0	0	0	0	503	
14	0	0	0	0	503	
15	0	0	0	0	504	
0	0	0	0	0	504	
1	0	0	0	0	504	
2	0	0	0	0	504	
3	0	0	0	0	504	
4	0	0	0	0	505	
5	0	0	0	0	504	
6	0	0	0	0	504	
7	0	0	0	0	504	
8	0	0	0	0	505	
9	0	0	0	0	506	
10	0	0	0	0	505	
11	0	0	0	0	504	
12	0	0	0	0	502	
13	0	0	0	0	503	
14	0	0	0	0	503	
15	0	0	0	0	503	
0	0	0	0	0	502	
1	0	0	0	0	504	
2	0	0	0	0	504	
3	0	0	0	0	503	
4	0	0	0	0	502	
5	0	0	0	0	502	
6	0	0	0	0	502	
7	0	0	0	0	503	
8	0	0	0	0	503	
9	0	0	0	0	503	
10	0	0	0	0	503	
11	0	0	0	0	504	
12	0	0	0	0	504	
13	0	0	0	0	505	
14	0	0	0	0	505	
15	0	0	0	0	506	
0	0	0	0	0	505	
1	0	0	0	0	505	
2	0	0	0	0	505	
3	0	0	0	0	506	
4	0	0	0	0	507	
5	0	0	0	0	506	
6	0	0	0	0	505	
7	0	0	0	0	504	
8	0	0	0	0	504	
9	0	0	0	0	504	
10	0	0	0	0	505	
11	0	0	0	0	505	
12	0	0	0	0	504	
13	0	0	0	0	505	
14	0	0	0	0	504	
15	0	0	0	0	505	
0	0	0	0	0	506	
1	0	0	0	0	506	
2	0	0	0	0	505	
3	0	0	0	0	504	
4	0	0	0	0	506	
5	0	0	0	0	507	
6	0	0	0	0	506	
7	0	0	0	0	505	
8	0	0	0	0	503	
9	0	0	0	0	502	
10	0	0	0	0	500	
11	0	0	0	0	498	
12	0	0	0	0	497	
13	0	0	0	0	495	
14	0	0	0	0	493	
15	0	0	0	0	492	
0	0	0	0	0	491	
1	0	0	0	0	491	
2	0	0	0	0	489	
3	0	0	0	0	488	
4	0	0	0	0	488	
5	0	0	0	0	487	
6	0	0	0	0	487	
7	0	0	0	0	486	
8	0	0	0	0	484	
9	0	0	0	0	483	
10	0	0	0	0	482	
11	0	0	0	0	482	
12	0	0	0	0	482	
13	0	0	0	0	480	
14	0	0	0	0	480	
15	0	0	0	0	480	
0	0	0	0	0	479	
1	0	0	0	0	479	
2	0	0	0	0	479	
3	0	0	0	0	480	
4	0	0	0	0	481	
5	0	0	0	0	481	
6	0	0	0	0	480	
7	0	0	0	0	480	
8	0	0	0	0	480	
9	0	0	0	0	480	
10	0	0	0	0	480	
11	0	0	0	0	479	
12	0	0	0	0	479	
13	0	0	0	0	480	
14	0	0	0	0	482	
15	0	0	0	0	484	
0	0	0	0	0	486	
1	0	0	0	0	490	
2	0	0	0	0	492	
3	0	0	0	0	494	
4	0	0	0	0	495	
5	0	0	0	0	496	
6	0	0	0	0	496	
7	0	0	0	0	496	
8	0	0	0	0	497	
9	0	0	0	0	499	
10	0	0	0	0	499	
11	0	0	0	0	502	
12	0	0	0	0	504	
13	0	0	0	0	505	
14	0	0	0	0	507	
15	0	0	0	0	508	
0	0	0	0	0	508	
1	0	0	0	0	510	
2	0	0	0	0	512	
3	0	0	0	0	513	
4	0	0	0	0	514	
5	0	0	0	0	515	
6	0	0	0	0	515	
7	0	0	0	0	516	
8	0	0	0	0	517	
9	0	0	0	0	518	
10	0	0	0	0	518	
11	0	0	0	0	517	
12	0	0	0	0	517	
13	0	0	0	0	517	
14	0	0	0	0	517	
15	0	0	0	0	518	
0	0	0	0	0	519	
1	0	0	0	0	517	
2	0	0	0	0	516	
3	0	0	0	0	514	
4	0	0	0	0	513	
5	0	0	0	0	514	
6	0	0	0	0	515	
7	0	0	0	0	515	
8	0	0	0	0	515	
9	0	0	0	0	516	
10	0	0	0	0	516	
11	0	0	0	0	517	
12	0	0	0	0	518	
13	0	0	0	0	518	
14	0	0	0	0	517	
15	0	0	0	0	517	
0	0	0	0	0	516	
1	0	0	0	0	516	
2	0	0	0	0	516	
3	0	0	0	0	518	
4	0	0	0	0	518	
5	0	0	0	0	518	
6	0	0	0	0	517	
7	0	0	0	0	514	
8	0	0	0	0	512	
9	0	0	0	0	508	
10	0	0	0	0	503	
11	0	0	0	0	498	
12	0	0	0	0	493	
13	0	0	0	0	488	
14	0	0	0	0	480	
15	0	0	0	0	473	
0	0	0	0	0	466	
1	0	0	0	0	460	
2	0	0	0	0	454	
3	0	0	0	0	447	
4	0	0	0	0	439	
5	0	0	0	0	430	
6	0	0	0	0	423	
7	0	0	0	0	415	
8	0	0	0	0	407	
9	0	0	0	0	399	
10	0	0	0	0	391	
11	0	0	0	0	384	
12	0	0	0	0	377	
13	0	0	0	0	368	
14	0	0	0	0	359	
15	0	0	0	0	351	
0	0	0	0	0	341	
1	0	0	0	0	328	
2	0	0	0	0	319	
3	0	0	0	0	311	
4	0	0	0	0	306	
5	0	0	0	0	303	
6	0	0	0	0	299	
7	0	0	0	0	299	
8	0	0	0	0	303	
9	0	0	0	0	311	
10	0	0	0	0	321	
11	0	0	0	0	335	
12	0	0	0	0	352	
13	0	0	0	0	375	
14	0	0	0	0	400	
15	0	0	0	0	426	
0	0	0	0	0	454	
1	0	0	0	0	482	
2	0	0	0	0	510	
3	0	0	0	0	541	
4	0	0	0	0	574	
5	0	0	0	0	606	
6	0	0	0	0	636	
7	0	0	0	0	669	
8	0	0	0	0	700	
9	0	0	0	0	729	
10	0	0	0	0	751	
11	0	0	0	0	770	
12	0	0	0	0	786	
13	0	0	0	0	798	
14	0	0	0	0	807	
15	0	0	0	0	813	
0	0	0	0	0	816	
1	0	0	0	0	816	
2	0	0	0	0	815	
3	0	0	0	0	809	
4	0	0	0	0	803	
5	0	0	0	0	797	
6	0	0	0	0	791	
7	0	0	0	0	783	
8	0	0	0	0	775	
9	0	0	0	0	767	
10	0	0	0	0	759	
11	0	0	0	0	751	
12	0	0	0	0	742	
13	0	0	0	0	732	
14	0	0	0	0	722	
15	0	0	0	0	714	
0	0	0	0	0	705	
1	0	0	0	0	695	
2	0	0	0	0	684	
3	0	0	0	0	674	
4	0	0	0	0	664	
5	0	0	0	0	652	
6	0	0	0	0	641	
7	0	0	0	0	630	
8	0	0	0	0	617	
9	0	0	0	0	606	
10	0	0	0	0	594	
11	0	0	0	0	584	
12	0	0	0	0	575	
13	0	0	0	0	566	
14	0	0	0	0	557	
15	0	0	0	0	549	
0	0	0	0	0	541	
1	0	0	0	0	533	
2	0	0	0	0	526	
3	0	0	0	0	520	
4	0	0	0	0	515	
5	0	0	0	0	509	
6	0	0	0	0	503	
7	0	0	0	0	497	
8	0	0	0	0	492	
9	0	0	0	0	487	
10	0	0	0	0	482	
11	0	0	0	0	478	
12	0	0	0	0	475	
13	0	0	0	0	472	
14	0	0	0	0	468	
15	0	0	0	0	465	
0	0	0	0	0	462	
1	0	0	0	0	460	
2	0	0	0	0	457	
3	0	0	0	0	455	
4	0	0	0	0	453	
5	0	0	0	0	451	
6	0	0	0	0	450	
7	0	0	0	0	449	
8	0	0	0	0	448	
9	0	0	0	0	448	
10	0	0	0	0	446	
11	0	0	0	0	444	
12	0	0	0	0	443	
13	0	0	0	0	441	
14	0	0	0	0	441	
15	0	0	0	0	441	
0	0	0	0	0	442	
1	0	0	0	0	441	
2	0	0	0	0	441	
3	0	0	0	0	440	
4	0	0	0	0	439	
5	0	0	0	0	438	
6	0	0	0	0	438	
7	0	0	0	0	438	
8	0	0	0	0	440	
9	0	0	0	0	441	
10	0	0	0	0	441	
11	0	0	0	0	441	
12	0	0	0	0	440	
13	0	0	0	0	440	
14	0	0	0	0	441	
15	0	0	0	0	440	
0	0	0	0	0	440	
1	0	0	0	0	440	
2	0	0	0	0	440	
3	0	0	0	0	439	
4	0	0	0	0	439	
5	0	0	0	0	439	
6	0	0	0	0	440	
7	0	0	0	0	440	
8	0	0	0	0	440	
9	0	0	0	0	440	
10	0	0	0	0	440	
11	0	0	0	0	440	
12	0	0	0	0	440	
13	0	0	0	0	438	
14	0	0	0	0	438	
15	0	0	0	0	438	
0	0	0	0	0	438	
1	0	0	0	0	438	
2	0	0	0	0	438	
3	0	0	0	0	437	
4	0	0	0	0	437	
5	0	0	0	0	436	
6	0	0	0	0	435	
7	0	0	0	0	435	
8	0	0	0	0	436	
9	0	0	0	0	436	
10	0	0	0	0	436	
11	0	0	0	0	436	
12	0	0	0	0	436	
13	0	0	0	0	437	
14	0	0	0	0	439	
15	0	0	0	0	439	
0	0	0	0	0	438	
1	0	0	0	0	437	
2	0	0	0	0	437	
3	0	0	0	0	437	
4	0	0	0	0	438	
5	0	0	0	0	437	
6	0	0	0	0	437	
7	0	0	0	0	436	
8	0	0	0	0	435	
9	0	0	0	0	435	
10	0	0	0	0	434	
11	0	0	0	0	432	
12	0	0	0	0	432	
13	0	0	0	0	432	
14	0	0	0	0	433	
15	0	0	0	0	432	
0	0	0	0	0	432	
1	0	0	0	0	431	
2	0	0	0	0	431	
3	0	0	0	0	429	
4	0	0	0	0	428	
5	0	0	0	0	428	
6	0	0	0	0	428	
7	0	0	0	0	426	
8	0	0	0	0	426	
9	0	0	0	0	426	
10	0	0	0	0	425	
11	0	0	0	0	425	
12	0	0	0	0	424	
13	0	0	0	0	424	
14	0	0	0	0	424	
15	0	0	0	0	423	
0	0	0	0	0	423	
1	0	0	0	0	421	
2	0	0	0	0	420	
3	0	0	0	0	419	
4	0	0	0	0	419	
5	0	0	0	0	418	
6	0	0	0	0	417	
7	0	0	0	0	416	
8	0	0	0	0	416	
9	0	0	0	0	414	
10	0	0	0	0	412	
11	0	0	0	0	411	
12	0	0	0	0	410	
13	0	0	0	0	410	
14	0	0	0	0	409	
15	0	0	0	0	408	
0	0	0	0	0	407	
1	0	0	0	0	406	
2	0	0	0	0	406	
3	0	0	0	0	406	
4	0	0	0	0	407	
5	0	0	0	0	407	
6	0	0	0	0	407	
7	0	0	0	0	405	
8	0	0	0	0	404	
9	0	0	0	0	404	
10	0	0	0	0	405	
11	0	0	0	0	404	
12	0	0	0	0	404	
13	0	0	0	0	403	
14	0	0	0	0	403	
15	0	0	0	0	404	
0	0	0	0	0	403	
1	0	0	0	0	401	
2	0	0	0	0	401	
3	0	0	0	0	401	
4	0	0	0	0	400	
5	0	0	0	0	400	
6	0	0	0	0	401	
7	0	0	0	0	400	
8	0	0	0	0	400	
9	0	0	0	0	400	
10	0	0	0	0	400	
11	0	0	0	0	401	
12	0	0	0	0	401	
13	0	0	0	0	402	
14	0	0	0	0	402	
15	0	0	0	0	403	
0	0	0	0	0	405	
1	0	0	0	0	407	
2	0	0	0	0	408	
3	0	0	0	0	410	
4	0	0	0	0	413	
5	0	0	0	0	414	
6	0	0	0	0	414	
7	0	0	0	0	415	
8	0	0	0	0	415	
9	0	0	0	0	416	
10	0	0	0	0	417	
11	0	0	0	0	419	
12	0	0	0	0	420	
13	0	0	0	0	422	
14	0	0	0	0	424	
15	0	0	0	0	427	
0	0	0	0	0	429	
1	0	0	0	0	431	
2	0	0	0	0	435	
3	0	0	0	0	439	
4	0	0	0	0	441	
5	0	0	0	0	444	
6	0	0	0	0	445	
7	0	0	0	0	448	
8	0	0	0	0	449	
9	0	0	0	0	450	
10	0	0	0	0	451	
11	0	0	0	0	454	
12	0	0	0	0	458	
13	0	0	0	0	462	
14	0	0	0	0	464	
15	0	0	0	0	466	
0	0	0	0	0	469	
1	0	0	0	0	472	
2	0	0	0	0	476	
3	0	0	0	0	479	
4	0	0	0	0	482	
5	0	0	0	0	486	
6	0	0	0	0	487	
7	0	0	0	0	490	
8	0	0	0	0	493	
9	0	0	0	0	496	
10	0	0	0	0	499	
11	0	0	0	0	502	
12	0	0	0	0	504	
13	0	0	0	0	508	
14	0	0	0	0	511	
15	0	0	0	0	515	
0	0	0	0	0	517	
1	0	0	0	0	520	
2	0	0	0	0	524	
3	0	0	0	0	528	
4	0	0	0	0	532	
5	0	0	0	0	535	
6	0	0	0	0	537	
7	0	0	0	0	540	
8	0	0	0	0	542	
9	0	0	0	0	545	
10	0	0	0	0	547	
11	0	0	0	0	549	
12	0	0	0	0	552	
13	0	0	0	0	556	
14	0	0	0	0	558	
15	0	0	0	0	560	
0	0	0	0	0	563	
1	0	0	0	0	566	
2	0	0	0	0	568	
3	0	0	0	0	570	
4	0	0	0	0	571	
5	0	0	0	0	572	
6	0	0	0	0	573	
7	0	0	0	0	574	
8	0	0	0	0	576	
9	0	0	0	0	578	
10	0	0	0	0	578	
11	0	0	0	0	579	
12	0	0	0	0	580	
13	0	0	0	0	582	
14	0	0	0	0	583	
15	0	0	0	0	584	
0	0	0	0	0	585	
1	0	0	0	0	586	
2	0	0	0	0	587	
3	0	0	0	0	587	
4	0	0	0	0	589	
5	0	0	0	0	590	
6	0	0	0	0	591	
7	0	0	0	0	591	
8	0	0	0	0	591	
9	0	0	0	0	591	
10	0	0	0	0	591	
11	0	0	0	0	590	
12	0	0	0	0	590	
13	0	0	0	0	590	
14	0	0	0	0	591	
15	0	0	0	0	591	
0	0	0	0	0	591	
1	0	0	0	0	592	
2	0	0	0	0	593	
3	0	0	0	0	592	
4	0	0	0	0	592	
5	0	0	0	0	591	
6	0	0	0	0	590	
7	0	0	0	0	590	
8	0	0	0	0	590	
9	0	0	0	0	589	
10	0	0	0	0	588	
11	0	0	0	0	589	
12	0	0	0	0	588	
13	0	0	0	0	587	
14	0	0	0	0	585	
15	0	0	0	0	583	
0	0	0	0	0	583	
1	0	0	0	0	584	
2	0	0	0	0	584	
3	0	0	0	0	585	
4	0	0	0	0	585	
5	0	0	0	0	585	
6	0	0	0	0	585	
7	0	0	0	0	584	
8	0	0	0	0	582	
9	0	0	0	0	580	
10	0	0	0	0	579	
11	0	0	0	0	577	
12	0	0	0	0	575	
13	0	0	0	0	574	
14	0	0	0	0	574	
15	0	0	0	0	574	
0	0	0	0	0	575	
1	0	0	0	0	575	
2	0	0	0	0	575	
3	0	0	0	0	575	
4	0	0	0	0	575	
5	0	0	0	0	574	
6	0	0	0	0	573	
7	0	0	0	0	570	
8	0	0	0	0	569	
9	0	0	0	0	568	
10	0	0	0	0	567	
11	0	0	0	0	566	
12	0	0	0	0	567	
13	0	0	0	0	567	
14	0	0	0	0	566	
15	0	0	0	0	564	
0	0	0	0	0	562	
1	0	0	0	0	562	
2	0	0	0	0	560	
3	0	0	0	0	560	
4	0	0	0	0	560	
5	0	0	0	0	562	
6	0	0	0	0	560	
7	0	0	0	0	560	
8	0	0	0	0	560	
9	0	0	0	0	560	
10	0	0	0	0	559	
11	0	0	0	0	558	
12	0	0	0	0	556	
13	0	0	0	0	555	
14	0	0	0	0	555	
15	0	0	0	0	556	
0	0	0	0	0	555	
1	0	0	0	0	555	
2	0	0	0	0	555	
3	0	0	0	0	555	
4	0	0	0	0	555	
5	0	0	0	0	555	
6	0	0	0	0	555	
7	0	0	0	0	555	
8	0	0	0	0	554	
9	0	0	0	0	553	
10	0	0	0	0	552	
11	0	0	0	0	551	
12	0	0	0	0	547	
13	0	0	0	0	547	
14	0	0	0	0	546	
15	0	0	0	0	546	
0	0	0	0	0	545	
1	0	0	0	0	543	
2	0	0	0	0	543	
3	0	0	0	0	542	
4	0	0	0	0	542	
5	0	0	0	0	541	
6	0	0	0	0	541	
7	0	0	0	0	540	
8	0	0	0	0	540	
9	0	0	0	0	540	
10	0	0	0	0	538	
11	0	0	0	0	537	
12	0	0	0	0	537	
13	0	0	0	0	535	
14	0	0	0	0	534	
15	0	0	0	0	533	
0	0	0	0	0	533	
1	0	0	0	0	533	
2	0	0	0	0	533	
3	0	0	0	0	534	
4	0	0	0	0	535	
5	0	0	0	0	535	
6	0	0	0	0	534	
7	0	0	0	0	535	
8	0	0	0	0	536	
9	0	0	0	0	536	
10	0	0	0	0	534	
11	0	0	0	0	532	
12	0	0	0	0	532	
13	0	0	0	0	531	
14	0	0	0	0	529	
15	0	0	0	0	527	
0	0	0	0	0	527	
1	0	0	0	0	527	
2	0	0	0	0	528	
3	0	0	0	0	527	
4	0	0	0	0	527	
5	0	0	0	0	525	
6	0	0	0	0	527	
7	0	0	0	0	527	
8	0	0	0	0	528	
9	0	0	0	0	528	
10	0	0	0	0	527	
11	0	0	0	0	527	
12	0	0	0	0	527	
13	0	0	0	0	526	
14	0	0	0	0	526	
15	0	0	0	0	525	
0	0	0	0	0	524	
1	0	0	0	0	522	
2	0	0	0	0	522	
3	0	0	0	0	522	
4	0	0	0	0	523	
5	0	0	0	0	524	
6	0	0	0	0	526	
7	0	0	0	0	527	
8	0	0	0	0	527	
9	0	0	0	0	527	
10	0	0	0	0	527	
11	0	0	0	0	527	
12	0	0	0	0	526	
13	0	0	0	0	526	
14	0	0	0	0	526	
15	0	0	0	0	525	
0	0	0	0	0	524	
1	0	0	0	0	523	
2	0	0	0	0	522	
3	0	0	0	0	522	
4	0	0	0	0	520	
5	0	0	0	0	519	
6	0	0	0	0	519	
7	0	0	0	0	519	
8	0	0	0	0	519	
9	0	0	0	0	522	
10	0	0	0	0	523	
11	0	0	0	0	524	
12	0	0	0	0	523	
13	0	0	0	0	522	
14	0	0	0	0	521	
15	0	0	0	0	520	
0	0	0	0	0	519	
1	0	0	0	0	520	
2	0	0	0	0	520	
3	0	0	0	0	518	
4	0	0	0	0	516	
5	0	0	0	0	516	
6	0	0	0	0	517	
7	0	0	0	0	516	
8	0	0	0	0	515	
9	0	0	0	0	515	
10	0	0	0	0	517	
11	0	0	0	0	518	
12	0	0	0	0	516	
13	0	0	0	0	515	
14	0	0	0	0	516	
15	0	0	0	0	516	
0	0	0	0	0	516	
1	0	0	0	0	517	
2	0	0	0	0	516	
3	0	0	0	0	515	
4	0	0	0	0	515	
5	0	0	0	0	515	
6	0	0	0	0	515	
7	0	0	0	0	515	
8	0	0	0	0	515	
9	0	0	0	0	517	
10	0	0	0	0	518	
11	0	0	0	0	518	
12	0	0	0	0	518	
13	0	0	0	0	518	
14	0	0	0	0	517	
15	0	0	0	0	515	
0	0	0	0	0	516	
1	0	0	0	0	515	
2	0	0	0	0	513	
3	0	0	0	0	513	
4	0	0	0	0	512	
5	0	0	0	0	512	
6	0	0	0	0	513	
7	0	0	0	0	514	
8	0	0	0	0	514	
9	0	0	0	0	515	
10	0	0	0	0	515	
11	0	0	0	0	515	
12	0	0	0	0	515	
13	0	0	0	0	515	
14	0	0	0	0	516	
15	0	0	0	0	516	
0	0	0	0	0	516	
1	0	0	0	0	516	
2	0	0	0	0	515	
3	0	0	0	0	515	
4	0	0	0	0	515	
5	0	0	0	0	515	
6	0	0	0	0	515	
7	0	0	0	0	515	
8	0	0	0	0	515	
9	0	0	0	0	513	
10	0	0	0	0	514	
11	0	0	0	0	515	
12	0	0	0	0	515	
13	0	0	0	0	516	
14	0	0	0	0	516	
15	0	0	0	0	516	
0	0	0	0	0	515	
1	0	0	0	0	515	
2	0	0	0	0	514	
3	0	0	0	0	514	
4	0	0	0	0	512	
5	0	0	0	0	512	
6	0	0	0	0	511	
7	0	0	0	0	512	
8	0	0	0	0	513	
9	0	0	0	0	513	
10	0	0	0	0	513	
11	0	0	0	0	514	
12	0	0	0	0	514	
13	0	0	0	0	514	
14	0	0	0	0	515	
15	0	0	0	0	516	
0	0	0	0	0	515	
1	0	0	0	0	515	
2	0	0	0	0	513	
3	0	0	0	0	511	
4	0	0	0	0	511	
5	0	0	0	0	511	
6	0	0	0	0	511	
7	0	0	0	0	512	
8	0	0	0	0	512	
9	0	0	0	0	512	
10	0	0	0	0	511	
11	0	0	0	0	510	
12	0	0	0	0	509	
13	0	0	0	0	508	
14	0	0	0	0	508	
15	0	0	0	0	507	
0	0	0	0	0	507	
1	0	0	0	0	507	
2	0	0	0	0	508	
3	0	0	0	0	509	
4	0	0	0	0	509	
5	0	0	0	0	509	
6	0	0	0	0	509	
7	0	0	0	0	508	
8	0	0	0	0	508	
9	0	0	0	0	508	
10	0	0	0	0	507	
11	0	0	0	0	506	
12	0	0	0	0	505	
13	0	0	0	0	507	
14	0	0	0	0	508	
15	0	0	0	0	509	
0	0	0	0	0	510	
1	0	0	0	0	510	
2	0	0	0	0	509	
3	0	0	0	0	509	
4	0	0	0	0	508	
5	0	0	0	0	508	
6	0	0	0	0	507	
7	0	0	0	0	507	
8	0	0	0	0	506	
9	0	0	0	0	506	
10	0	0	0	0	505	
11	0	0	0	0	504	
12	0	0	0	0	504	
13	0	0	0	0	506	
14	0	0	0	0	507	
15	0	0	0	0	507	
0	0	0	0	0	507	
1	0	0	0	0	507	
2	0	0	0	0	507	
3	0	0	0	0	507	
4	0	0	0	0	507	
5	0	0	0	0	507	
6	0	0	0	0	507	
7	0	0	0	0	505	
8	0	0	0	0	505	
9	0	0	0	0	507	
10	0	0	0	0	507	
11	0	0	0	0	508	
12	0	0	0	0	507	
13	0	0	0	0	507	
14	0	0	0	0	508	
15	0	0	0	0	508	
0	0	0	0	0	508	
1	0	0	0	0	508	
2	0	0	0	0	509	
3	0	0	0	0	510	
4	0	0	0	0	508	
5	0	0	0	0	506	
6	0	0	0	0	505	
7	0	0	0	0	504	
8	0	0	0	0	502	
9	0	0	0	0	504	
10	0	0	0	0	506	
11	0	0	0	0	507	
12	0	0	0	0	505	
13	0	0	0	0	504	
14	0	0	0	0	505	
15	0	0	0	0	505	
0	0	0	0	0	505	
1	0	0	0	0	506	
2	0	0	0	0	507	
3	0	0	0	0	507	
4	0	0	0	0	506	
5	0	0	0	0	507	
6	0	0	0	0	504	
7	0	0	0	0	503	
8	0	0	0	0	502	
9	0	0	0	0	502	
10	0	0	0	0	501	
11	0	0	0	0	500	
12	0	0	0	0	500	
13	0	0	0	0	501	
14	0	0	0	0	503	
15	0	0	0	0	504	
0	0	0	0	0	506	
1	0	0	0	0	507	
2	0	0	0	0	506	
3	0	0	0	0	506	
4	0	0	0	0	506	
5	0	0	0	0	507	
6	0	0	0	0	506	
7	0	0	0	0	503	
8	0	0	0	0	505	
9	0	0	0	0	507	
10	0	0	0	0	506	
11	0	0	0	0	504	
12	0	0	0	0	504	
13	0	0	0	0	504	
14	0	0	0	0	503	
15	0	0	0	0	501	
0	0	0	0	0	501	
1	0	0	0	0	500	
2	0	0	0	0	499	
3	0	0	0	0	499	
4	0	0	0	0	498	
5	0	0	0	0	496	
6	0	0	0	0	496	
7	0	0	0	0	495	
8	0	0	0	0	493	
9	0	0	0	0	492	
10	0	0	0	0	490	
11	0	0	0	0	488	
12	0	0	0	0	488	
13	0	0	0	0	489	
14	0	0	0	0	490	
15	0	0	0	0	490	
0	0	0	0	0	490	
1	0	0	0	0	490	
2	0	0	0	0	489	
3	0	0	0	0	487	
4	0	0	0	0	487	
5	0	0	0	0	487	
6	0	0	0	0	485	
7	0	0	0	0	482	
8	0	0	0	0	480	
9	0	0	0	0	480	
10	0	0	0	0	479	
11	0	0	0	0	479	
12	0	0	0	0	480	
13	0	0	0	0	481	
14	0	0	0	0	480	
15	0	0	0	0	480	
0	0	0	0	0	480	
1	0	0	0	0	482	
2	0	0	0	0	483	
3	0	0	0	0	484	
4	0	0	0	0	484	
5	0	0	0	0	485	
6	0	0	0	0	487	
7	0	0	0	0	488	
8	0	0	0	0	489	
9	0	0	0	0	490	
10	0	0	0	0	490	
11	0	0	0	0	490	
12	0	0	0	0	492	
13	0	0	0	0	493	
14	0	0	0	0	494	
15	0	0	0	0	496	
0	0	0	0	0	499	
1	0	0	0	0	500	
2	0	0	0	0	502	
3	0	0	0	0	506	
4	0	0	0	0	508	
5	0	0	0	0	510	
6	0	0	0	0	511	
7	0	0	0	0	512	
8	0	0	0	0	513	
9	0	0	0	0	513	
10	0	0	0	0	514	
11	0	0	0	0	514	
12	0	0	0	0	514	
13	0	0	0	0	514	
14	0	0	0	0	514	
15	0	0	0	0	513	
0	0	0	0	0	512	
1	0	0	0	0	512	
2	0	0	0	0	511	
3	0	0	0	0	511	
4	0	0	0	0	511	
5	0	0	0	0	512	
6	0	0	0	0	514	
7	0	0	0	0	514	
8	0	0	0	0	515	
9	0	0	0	0	516	
10	0	0	0	0	516	
11	0	0	0	0	513	
12	0	0	0	0	514	
13	0	0	0	0	513	
14	0	0	0	0	514	
15	0	0	0	0	515	
0	0	0	0	0	518	
1	0	0	0	0	519	
2	0	0	0	0	519	
3	0	0	0	0	519	
4	0	0	0	0	518	
5	0	0	0	0	518	
6	0	0	0	0	519	
7	0	0	0	0	519	
8	0	0	0	0	518	
9	0	0	0	0	516	
10	0	0	0	0	518	
11	0	0	0	0	517	
12	0	0	0	0	515	
13	0	0	0	0	514	
14	0	0	0	0	513	
15	0	0	0	0	511	
0	0	0	0	0	509	
1	0	0	0	0	509	
2	0	0	0	0	507	
3	0	0	0	0	505	
4	0	0	0	0	502	
5	0	0	0	0	498	
6	0	0	0	0	492	
7	0	0	0	0	487	
8	0	0	0	0	481	
9	0	0	0	0	474	
10	0	0	0	0	467	
11	0	0	0	0	460	
12	0	0	0	0	453	
13	0	0	0	0	446	
14	0	0	0	0	440	
15	0	0	0	0	434	
0	0	0	0	0	427	
1	0	0	0	0	420	
2	0	0	0	0	415	
3	0	0	0	0	410	
4	0	0	0	0	403	
5	0	0	0	0	397	
6	0	0	0	0	390	
7	0	0	0	0	379	
8	0	0	0	0	368	
9	0	0	0	0	357	
10	0	0	0	0	347	
11	0	0	0	0	337	
12	0	0	0	0	327	
13	0	0	0	0	320	
14	0	0	0	0	316	
15	0	0	0	0	314	
0	0	0	0	0	314	
1	0	0	0	0	318	
2	0	0	0	0	323	
3	0	0	0	0	332	
4	0	0	0	0	345	
5	0	0	0	0	362	
6	0	0	0	0	385	
7	0	0	0	0	409	
8	0	0	0	0	435	
9	0	0	0	0	461	
10	0	0	0	0	486	
11	0	0	0	0	513	
12	0	0	0	0	542	
13	0	0	0	0	569	
14	0	0	0	0	599	
15	0	0	0	0	629	
0	0	0	0	0	660	
1	0	0	0	0	689	
2	0	0	0	0	716	
3	0	0	0	0	737	
4	0	0	0	0	754	
5	0	0	0	0	769	
6	0	0	0	0	780	
7	0	0	0	0	788	
8	0	0	0	0	793	
9	0	0	0	0	796	
10	0	0	0	0	798	
11	0	0	0	0	799	
12	0	0	0	0	798	
13	0	0	0	0	792	
14	0	0	0	0	786	
15	0	0	0	0	780	
0	0	0	0	0	772	
1	0	0	0	0	764	
2	0	0	0	0	758	
3	0	0	0	0	751	
4	0	0	0	0	742	
5	0	0	0	0	732	
6	0	0	0	0	721	
7	0	0	0	0	712	
8	0	0	0	0	705	
9	0	0	0	0	699	
10	0	0	0	0	692	
11	0	0	0	0	684	
12	0	0	0	0	675	
13	0	0	0	0	668	
14	0	0	0	0	659	
15	0	0	0	0	649	
0	0	0	0	0	639	
1	0	0	0	0	628	
2	0	0	0	0	618	
3	0	0	0	0	609	
4	0	0	0	0	598	
5	0	0	0	0	587	
6	0	0	0	0	577	
7	0	0	0	0	569	
8	0	0	0	0	561	
9	0	0	0	0	555	
10	0	0	0	0	548	
11	0	0	0	0	541	
12	0	0	0	0	536	
13	0	0	0	0	530	
14	0	0	0	0	524	
15	0	0	0	0	519	
0	0	0	0	0	512	
1	0	0	0	0	506	
2	0	0	0	0	501	
3	0	0	0	0	496	
4	0	0	0	0	492	
5	0	0	0	0	486	
6	0	0	0	0	481	
7	0	0	0	0	478	
8	0	0	0	0	476	
9	0	0	0	0	473	
10	0	0	0	0	472	
11	0	0	0	0	470	
12	0	0	0	0	467	
13	0	0	0	0	465	
14	0	0	0	0	462	
15	0	0	0	0	460	
0	0	0	0	0	457	
1	0	0	0	0	454	
2	0	0	0	0	451	
3	0	0	0	0	448	
4	0	0	0	0	447	
5	0	0	0	0	445	
6	0	0	0	0	444	
7	0	0	0	0	444	
8	0	0	0	0	447	
9	0	0	0	0	447	
10	0	0	0	0	445	
11	0	0	0	0	442	
12	0	0	0	0	441	
13	0	0	0	0	441	
14	0	0	0	0	440	
15	0	0	0	0	440	
0	0	0	0	0	439	
1	0	0	0	0	438	
2	0	0	0	0	438	
3	0	0	0	0	438	
4	0	0	0	0	438	
5	0	0	0	0	438	
6	0	0	0	0	438	
7	0	0	0	0	439	
8	0	0	0	0	439	
9	0	0	0	0	439	
10	0	0	0	0	438	
11	0	0	0	0	439	
12	0	0	0	0	440	
13	0	0	0	0	442	
14	0	0	0	0	444	
15	0	0	0	0	443	
0	0	0	0	0	441	
1	0	0	0	0	441	
2	0	0	0	0	442	
3	0	0	0	0	442	
4	0	0	0	0	442	
5	0	0	0	0	441	
6	0	0	0	0	441	
7	0	0	0	0	443	
8	0	0	0	0	441	
9	0	0	0	0	441	
10	0	0	0	0	442	
11	0	0	0	0	442	
12	0	0	0	0	443	
13	0	0	0	0	442	
14	0	0	0	0	442	
15	0	0	0	0	441	
0	0	0	0	0	440	
1	0	0	0	0	440	
2	0	0	0	0	439	
3	0	0	0	0	439	
4	0	0	0	0	440	
5	0	0	0	0	441	
6	0	0	0	0	440	
7	0	0	0	0	440	
8	0	0	0	0	441	
9	0	0	0	0	442	
10	0	0	0	0	442	
11	0	0	0	0	443	
12	0	0	0	0	441	
13	0	0	0	0	440	
14	0	0	0	0	439	
15	0	0	0	0	438	
0	0	0	0	0	437	
1	0	0	0	0	436	
2	0	0	0	0	436	
3	0	0	0	0	435	
4	0	0	0	0	435	
5	0	0	0	0	435	
6	0	0	0	0	433	
7	0	0	0	0	434	
8	0	0	0	0	434	
9	0	0	0	0	434	
10	0	0	0	0	434	
11	0	0	0	0	433	
12	0	0	0	0	433	
13	0	0	0	0	433	
14	0	0	0	0	433	
15	0	0	0	0	434	
0	0	0	0	0	435	
1	0	0	0	0	434	
2	0	0	0	0	432	
3	0	0	0	0	431	
4	0	0	0	0	430	
5	0	0	0	0	428	
6	0	0	0	0	426	
7	0	0	0	0	424	
8	0	0	0	0	423	
9	0	0	0	0	422	
10	0	0	0	0	421	
11	0	0	0	0	421	
12	0	0	0	0	421	
13	0	0	0	0	420	
14	0	0	0	0	421	
15	0	0	0	0	419	
0	0	0	0	0	418	
1	0	0	0	0	417	
2	0	0	0	0	416	
3	0	0	0	0	416	
4	0	0	0	0	414	
5	0	0	0	0	414	
6	0	0	0	0	411	
7	0	0	0	0	408	
8	0	0	0	0	407	
9	0	0	0	0	408	
10	0	0	0	0	408	
11	0	0	0	0	408	
12	0	0	0	0	409	
13	0	0	0	0	410	
14	0	0	0	0	410	
15	0	0	0	0	410	
0	0	0	0	0	410	
1	0	0	0	0	409	
2	0	0	0	0	408	
3	0	0	0	0	407	
4	0	0	0	0	406	
5	0	0	0	0	403	
6	0	0	0	0	401	
7	0	0	0	0	400	
8	0	0	0	0	401	
9	0	0	0	0	402	
10	0	0	0	0	402	
11	0	0	0	0	402	
12	0	0	0	0	402	
13	0	0	0	0	403	
14	0	0	0	0	404	
15	0	0	0	0	405	
0	0	0	0	0	404	
1	0	0	0	0	402	
2	0	0	0	0	401	
3	0	0	0	0	400	
4	0	0	0	0	400	
5	0	0	0	0	401	
6	0	0	0	0	403	
7	0	0	0	0	406	
8	0	0	0	0	408	
9	0	0	0	0	408	
10	0	0	0	0	407	
11	0	0	0	0	408	
12	0	0	0	0	408	
13	0	0	0	0	410	
14	0	0	0	0	411	
15	0	0	0	0	413	
0	0	0	0	0	416	
1	0	0	0	0	420	
2	0	0	0	0	423	
3	0	0	0	0	424	
4	0	0	0	0	424	
5	0	0	0	0	425	
6	0	0	0	0	426	
7	0	0	0	0	428	
8	0	0	0	0	431	
9	0	0	0	0	433	
10	0	0	0	0	435	
11	0	0	0	0	437	
12	0	0	0	0	438	
13	0	0	0	0	440	
14	0	0	0	0	441	
15	0	0	0	0	443	
0	0	0	0	0	445	
1	0	0	0	0	448	
2	0	0	0	0	451	
3	0	0	0	0	455	
4	0	0	0	0	457	
5	0	0	0	0	462	
6	0	0	0	0	465	
7	0	0	0	0	468	
8	0	0	0	0	472	
9	0	0	0	0	473	
10	0	0	0	0	476	
11	0	0	0	0	479	
12	0	0	0	0	481	
13	0	0	0	0	485	
14	0	0	0	0	490	
15	0	0	0	0	494	
0	0	0	0	0	496	
1	0	0	0	0	499	
2	0	0	0	0	501	
3	0	0	0	0	503	
4	0	0	0	0	504	
5	0	0	0	0	507	
6	0	0	0	0	511	
7	0	0	0	0	515	
8	0	0	0	0	519	
9	0	0	0	0	521	
10	0	0	0	0	523	
11	0	0	0	0	527	
12	0	0	0	0	530	
13	0	0	0	0	533	
14	0	0	0	0	536	
15	0	0	0	0	540	
0	0	0	0	0	543	
1	0	0	0	0	547	
2	0	0	0	0	550	
3	0	0	0	0	551	
4	0	0	0	0	553	
5	0	0	0	0	554	
6	0	0	0	0	556	
7	0	0	0	0	559	
8	0	0	0	0	561	
9	0	0	0	0	562	
10	0	0	0	0	564	
11	0	0	0	0	566	
12	0	0	0	0	568	
13	0	0	0	0	569	
14	0	0	0	0	571	
15	0	0	0	0	572	
0	0	0	0	0	575	
1	0	0	0	0	578	
2	0	0	0	0	578	
3	0	0	0	0	577	
4	0	0	0	0	577	
5	0	0	0	0	578	
6	0	0	0	0	580	
7	0	0	0	0	582	
8	0	0	0	0	584	
9	0	0	0	0	586	
10	0	0	0	0	587	
11	0	0	0	0	587	
12	0	0	0	0	587	
13	0	0	0	0	588	
14	0	0	0	0	588	
15	0	0	0	0	588	
0	0	0	0	0	588	
1	0	0	0	0	587	
2	0	0	0	0	587	
3	0	0	0	0	588	
4	0	0	0	0	589	
5	0	0	0	0	588	
6	0	0	0	0	588	
7	0	0	0	0	588	
8	0	0	0	0	589	
9	0	0	0	0	590	
10	0	0	0	0	590	
11	0	0	0	0	589	
12	0	0	0	0	589	
13	0	0	0	0	589	
14	0	0	0	0	589	
15	0	0	0	0	590	
0	0	0	0	0	590	
1	0	0	0	0	590	
2	0	0	0	0	590	
3	0	0	0	0	589	
4	0	0	0	0	587	
5	0	0	0	0	586	
6	0	0	0	0	584	
7	0	0	0	0	583	
8	0	0	0	0	583	
9	0	0	0	0	583	
10	0	0	0	0	582	
11	0	0	0	0	583	
12	0	0	0	0	582	
13	0	0	0	0	581	
14	0	0	0	0	580	
15	0	0	0	0	579	
0	0	0	0	0	579	
1	0	0	0	0	578	
2	0	0	0	0	578	
3	0	0	0	0	578	
4	0	0	0	0	579	
5	0	0	0	0	577	
6	0	0	0	0	577	
7	0	0	0	0	577	
8	0	0	0	0	577	
9	0	0	0	0	576	
10	0	0	0	0	574	
11	0	0	0	0	572	
12	0	0	0	0	572	
13	0	0	0	0	570	
14	0	0	0	0	570	
15	0	0	0	0	570	
0	0	0	0	0	568	
1	0	0	0	0	565	
2	0	0	0	0	565	
3	0	0	0	0	565	
4	0	0	0	0	564	
5	0	0	0	0	566	
6	0	0	0	0	565	
7	0	0	0	0	563	
8	0	0	0	0	563	
9	0	0	0	0	562	
10	0	0	0	0	562	
11	0	0	0	0	562	
12	0	0	0	0	561	
13	0	0	0	0	560	
14	0	0	0	0	560	
15	0	0	0	0	559	
0	0	0	0	0	557	
1	0	0	0	0	556	
2	0	0	0	0	556	
3	0	0	0	0	556	
4	0	0	0	0	556	
5	0	0	0	0	557	
6	0	0	0	0	557	
7	0	0	0	0	556	
8	0	0	0	0	556	
9	0	0	0	0	554	
10	0	0	0	0	552	
11	0	0	0	0	551	
12	0	0	0	0	551	
13	0	0	0	0	551	
14	0	0	0	0	551	
15	0	0	0	0	551	
0	0	0	0	0	551	
1	0	0	0	0	550	
2	0	0	0	0	550	
3	0	0	0	0	551	
4	0	0	0	0	551	
5	0	0	0	0	550	
6	0	0	0	0	550	
7	0	0	0	0	550	
8	0	0	0	0	550	
9	0	0	0	0	547	
10	0	0	0	0	544	
11	0	0	0	0	542	
12	0	0	0	0	542	
13	0	0	0	0	543	
14	0	0	0	0	543	
15	0	0	0	0	542	
0	0	0	0	0	541	
1	0	0	0	0	540	
2	0	0	0	0	538	
3	0	0	0	0	536	
4	0	0	0	0	537	
5	0	0	0	0	537	
6	0	0	0	0	537	
7	0	0	0	0	537	
8	0	0	0	0	537	
9	0	0	0	0	536	
10	0	0	0	0	535	
11	0	0	0	0	535	
12	0	0	0	0	535	
13	0	0	0	0	535	
14	0	0	0	0	534	
15	0	0	0	0	531	
0	0	0	0	0	530	
1	0	0	0	0	529	
2	0	0	0	0	529	
3	0	0	0	0	531	
4	0	0	0	0	529	
5	0	0	0	0	529	
6	0	0	0	0	529	
7	0	0	0	0	527	
8	0	0	0	0	527	
9	0	0	0	0	527	
10	0	0	0	0	526	
11	0	0	0	0	525	
12	0	0	0	0	524	
13	0	0	0	0	526	
14	0	0	0	0	525	
15	0	0	0	0	524	
0	0	0	0	0	524	
1	0	0	0	0	524	
2	0	0	0	0	523	
3	0	0	0	0	523	
4	0	0	0	0	522	
5	0	0	0	0	522	
6	0	0	0	0	523	
7	0	0	0	0	524	
8	0	0	0	0	525	
9	0	0	0	0	526	
10	0	0	0	0	525	
11	0	0	0	0	524	
12	0	0	0	0	523	
13	0	0	0	0	522	
14	0	0	0	0	522	
15	0	0	0	0	522	
0	0	0	0	0	522	
1	0	0	0	0	521	
2	0	0	0	0	520	
3	0	0	0	0	520	
4	0	0	0	0	519	
5	0	0	0	0	519	
6	0	0	0	0	518	
7	0	0	0	0	518	
8	0	0	0	0	518	
9	0	0	0	0	518	
10	0	0	0	0	518	
11	0	0	0	0	518	
12	0	0	0	0	516	
13	0	0	0	0	515	
14	0	0	0	0	515	
15	0	0	0	0	514	
0	0	0	0	0	514	
1	0	0	0	0	515	
2	0	0	0	0	517	
3	0	0	0	0	517	
4	0	0	0	0	518	
5	0	0	0	0	518	
6	0	0	0	0	518	
7	0	0	0	0	518	
8	0	0	0	0	518	
9	0	0	0	0	517	
10	0	0	0	0	517	
11	0	0	0	0	517	
12	0	0	0	0	517	
13	0	0	0	0	517	
14	0	0	0	0	517	
15	0	0	0	0	518	
0	0	0	0	0	518	
1	0	0	0	0	518	
2	0	0	0	0	518	
3	0	0	0	0	517	
4	0	0	0	0	516	
5	0	0	0	0	518	
6	0	0	0	0	518	
7	0	0	0	0	517	
8	0	0	0	0	517	
9	0	0	0	0	519	
10	0	0	0	0	519	
11	0	0	0	0	518	
12	0	0	0	0	518	
13	0	0	0	0	518	
14	0	0	0	0	519	
15	0	0	0	0	517	
0	0	0	0	0	515	
1	0	0	0	0	513	
2	0	0	0	0	512	
3	0	0	0	0	512	
4	0	0	0	0	512	
5	0	0	0	0	511	
6	0	0	0	0	510	
7	0	0	0	0	510	
8	0	0	0	0	509	
9	0	0	0	0	509	
10	0	0	0	0	510	
11	0	0	0	0	512	
12	0	0	0	0	512	
13	0	0	0	0	513	
14	0	0	0	0	513	
15	0	0	0	0	513	
0	0	0	0	0	514	
1	0	0	0	0	513	
2	0	0	0	0	513	
3	0	0	0	0	512	
4	0	0	0	0	510	
5	0	0	0	0	509	
6	0	0	0	0	509	
7	0	0	0	0	510	
8	0	0	0	0	510	
9	0	0	0	0	510	
10	0	0	0	0	512	
11	0	0	0	0	513	
12	0	0	0	0	515	
13	0	0	0	0	515	
14	0	0	0	0	515	
15	0	0	0	0	515	
0	0	0	0	0	514	
1	0	0	0	0	513	
2	0	0	0	0	512	
3	0	0	0	0	512	
4	0	0	0	0	510	
5	0	0	0	0	509	
6	0	0	0	0	510	
7	0	0	0	0	511	
8	0	0	0	0	511	
9	0	0	0	0	510	
10	0	0	0	0	510	
11	0	0	0	0	512	
12	0	0	0	0	512	
13	0	0	0	0	512	
14	0	0	0	0	512	
15	0	0	0	0	511	
0	0	0	0	0	510	
1	0	0	0	0	510	
2	0	0	0	0	509	
3	0	0	0	0	508	
4	0	0	0	0	507	
5	0	0	0	0	508	
6	0	0	0	0	509	
7	0	0	0	0	507	
8	0	0	0	0	506	
9	0	0	0	0	506	
10	0	0	0	0	505	
11	0	0	0	0	505	
12	0	0	0	0	506	
13	0	0	0	0	507	
14	0	0	0	0	508	
15	0	0	0	0	508	
0	0	0	0	0	509	
1	0	0	0	0	509	
2	0	0	0	0	509	
3	0	0	0	0	508	
4	0	0	0	0	509	
5	0	0	0	0	508	
6	0	0	0	0	507	
7	0	0	0	0	506	
8	0	0	0	0	506	
9	0	0	0	0	507	
10	0	0	0	0	506	
11	0	0	0	0	505	
12	0	0	0	0	505	
13	0	0	0	0	506	
14	0	0	0	0	507	
15	0	0	0	0	508	
0	0	0	0	0	508	
1	0	0	0	0	507	
2	0	0	0	0	505	
3	0	0	0	0	504	
4	0	0	0	0	504	
5	0	0	0	0	503	
6	0	0	0	0	504	
7	0	0	0	0	504	
8	0	0	0	0	504	
9	0	0	0	0	505	
10	0	0	0	0	505	
11	0	0	0	0	505	
12	0	0	0	0	506	
13	0	0	0	0	507	
14	0	0	0	0	506	
15	0	0	0	0	505	
0	0	0	0	0	506	
1	0	0	0	0	506	
2	0	0	0	0	506	
3	0	0	0	0	506	
4	0	0	0	0	506	
5	0	0	0	0	505	
6	0	0	0	0	505	
7	0	0	0	0	504	
8	0	0	0	0	504	
9	0	0	0	0	503	
10	0	0	0	0	502	
11	0	0	0	0	502	
12	0	0	0	0	501	
13	0	0	0	0	501	
14	0	0	0	0	501	
15	0	0	0	0	502	
0	0	0	0	0	502	
1	0	0	0	0	502	
2	0	0	0	0	501	
3	0	0	0	0	500	
4	0	0	0	0	502	
5	0	0	0	0	504	
6	0	0	0	0	505	
7	0	0	0	0	503	
8	0	0	0	0	501	
9	0	0	0	0	500	
10	0	0	0	0	499	
11	0	0	0	0	500	
12	0	0	0	0	501	
13	0	0	0	0	502	
14	0	0	0	0	501	
15	0	0	0	0	500	
0	0	0	0	0	501	
1	0	0	0	0	502	
2	0	0	0	0	501	
3	0	0	0	0	502	
4	0	0	0	0	503	
5	0	0	0	0	503	
6	0	0	0	0	503	
7	0	0	0	0	503	
8	0	0	0	0	503	
9	0	0	0	0	503	
10	0	0	0	0	504	
11	0	0	0	0	503	
12	0	0	0	0	503	
13	0	0	0	0	503	
14	0	0	0	0	503	
15	0	0	0	0	503	
0	0	0	0	0	503	
1	0	0	0	0	503	
2	0	0	0	0	502	
3	0	0	0	0	501	
4	0	0	0	0	500	
5	0	0	0	0	500	
6	0	0	0	0	498	
7	0	0	0	0	498	
8	0	0	0	0	497	
9	0	0	0	0	496	
10	0	0	0	0	495	
11	0	0	0	0	494	
12	0	0	0	0	493	
13	0	0	0	0	492	
14	0	0	0	0	492	
15	0	0	0	0	490	
0	0	0	0	0	489	
1	0	0	0	0	488	
2	0	0	0	0	487	
3	0	0	0	0	487	
4	0	0	0	0	486	
5	0	0	0	0	486	
6	0	0	0	0	486	
7	0	0	0	0	484	
8	0	0	0	0	482	
9	0	0	0	0	481	
10	0	0	0	0	481	
11	0	0	0	0	480	
12	0	0	0	0	480	
13	0	0	0	0	480	
14	0	0	0	0	478	
15	0	0	0	0	477	
0	0	0	0	0	477	
1	0	0	0	0	477	
2	0	0	0	0	477	
3	0	0	0	0	477	
4	0	0	0	0	477	
5	0	0	0	0	476	
6	0	0	0	0	477	
7	0	0	0	0	478	
8	0	0	0	0	478	
9	0	0	0	0	479	
10	0	0	0	0	478	
11	0	0	0	0	480	
12	0	0	0	0	481	
13	0	0	0	0	483	
14	0	0	0	0	484	
15	0	0	0	0	486	
0	0	0	0	0	487	
1	0	0	0	0	489	
2	0	0	0	0	491	
3	0	0	0	0	492	
4	0	0	0	0	495	
5	0	0	0	0	496	
6	0	0	0	0	496	
7	0	0	0	0	497	
8	0	0	0	0	498	
9	0	0	0	0	498	
10	0	0	0	0	499	
11	0	0	0	0	500	
12	0	0	0	0	503	
13	0	0	0	0	504	
14	0	0	0	0	507	
15	0	0	0	0	509	
0	0	0	0	0	510	
1	0	0	0	0	511	
2	0	0	0	0	512	
3	0	0	0	0	512	
4	0	0	0	0	512	
5	0	0	0	0	511	
6	0	0	0	0	511	
7	0	0	0	0	511	
8	0	0	0	0	512	
9	0	0	0	0	512	
10	0	0	0	0	512	
11	0	0	0	0	512	
12	0	0	0	0	512	
13	0	0	0	0	512	
14	0	0	0	0	512	
15	0	0	0	0	513	
0	0	0	0	0	513	
1	0	0	0	0	513	
2	0	0	0	0	515	
3	0	0	0	0	517	
4	0	0	0	0	519	
5	0	0	0	0	520	
6	0	0	0	0	519	
7	0	0	0	0	517	
8	0	0	0	0	518	
9	0	0	0	0	517	
10	0	0	0	0	515	
11	0	0	0	0	514	
12	0	0	0	0	512	
13	0	0	0	0	512	
14	0	0	0	0	512	
15	0	0	0	0	512	
0	0	0	0	0	512	
1	0	0	0	0	513	
2	0	0	0	0	513	
3	0	0	0	0	514	
4	0	0	0	0	514	
5	0	0	0	0	513	
6	0	0	0	0	512	
7	0	0	0	0	511	
8	0	0	0	0	509	
9	0	0	0	0	506	
10	0	0	0	0	502	
11	0	0	0	0	496	
12	0	0	0	0	491	
13	0	0	0	0	484	
14	0	0	0	0	478	
15	0	0	0	0	472	
0	0	0	0	0	466	
1	0	0	0	0	460	
2	0	0	0	0	454	
3	0	0	0	0	447	
4	0	0	0	0	440	
5	0	0	0	0	432	
6	0	0	0	0	423	
7	0	0	0	0	416	
8	0	0	0	0	409	
9	0	0	0	0	402	
10	0	0	0	0	395	
11	0	0	0	0	388	
12	0	0	0	0	382	
13	0	0	0	0	374	
14	0	0	0	0	365	
15	0	0	0	0	355	
0	0	0	0	0	347	
1	0	0	0	0	339	
2	0	0	0	0	331	
3	0	0	0	0	326	
4	0	0	0	0	321	
5	0	0	0	0	319	
6	0	0	0	0	319	
7	0	0	0	0	319	
8	0	0	0	0	322	
9	0	0	0	0	329	
10	0	0	0	0	339	
11	0	0	0	0	352	
12	0	0	0	0	370	
13	0	0	0	0	391	
14	0	0	0	0	415	
15	0	0	0	0	439	
0	0	0	0	0	463	
1	0	0	0	0	489	
2	0	0	0	0	517	
3	0	0	0	0	546	
4	0	0	0	0	576	
5	0	0	0	0	608	
6	0	0	0	0	638	
7	0	0	0	0	668	
8	0	0	0	0	698	
9	0	0	0	0	724	
10	0	0	0	0	746	
11	0	0	0	0	763	
12	0	0	0	0	774	
13	0	0	0	0	782	
14	0	0	0	0	788	
15	0	0	0	0	791	
0	0	0	0	0	793	
1	0	0	0	0	794	
2	0	0	0	0	792	
3	0	0	0	0	788	
4	0	0	0	0	782	
5	0	0	0	0	776	
6	0	0	0	0	769	
7	0	0	0	0	763	
8	0	0	0	0	755	
9	0	0	0	0	748	
10	0	0	0	0	740	
11	0	0	0	0	731	
12	0	0	0	0	722	
13	0	0	0	0	713	
14	0	0	0	0	706	
15	0	0	0	0	699	
0	0	0	0	0	692	
1	0	0	0	0	683	
2	0	0	0	0	673	
3	0	0	0	0	664	
4	0	0	0	0	655	
5	0	0	0	0	646	
6	0	0	0	0	636	
7	0	0	0	0	626	
8	0	0	0	0	616	
9	0	0	0	0	606	
10	0	0	0	0	595	
11	0	0	0	0	584	
12	0	0	0	0	574	
13	0	0	0	0	566	
14	0	0	0	0	556	
15	0	0	0	0	549	
0	0	0	0	0	541	
1	0	0	0	0	535	
2	0	0	0	0	527	
3	0	0	0	0	520	
4	0	0	0	0	514	
5	0	0	0	0	510	
6	0	0	0	0	504	
7	0	0	0	0	499	
8	0	0	0	0	493	
9	0	0	0	0	489	
10	0	0	0	0	484	
11	0	0	0	0	479	
12	0	0	0	0	476	
13	0	0	0	0	473	
14	0	0	0	0	471	
15	0	0	0	0	468	
0	0	0	0	0	465	
1	0	0	0	0	461	
2	0	0	0	0	456	
3	0	0	0	0	453	
4	0	0	0	0	450	
5	0	0	0	0	448	
6	0	0	0	0	448	
7	0	0	0	0	447	
8	0	0	0	0	447	
9	0	0	0	0	446	
10	0	0	0	0	445	
11	0	0	0	0	444	
12	0	0	0	0	443	
13	0	0	0	0	442	
14	0	0	0	0	441	
15	0	0	0	0	440	
0	0	0	0	0	441	
1	0	0	0	0	442	
2	0	0	0	0	442	
3	0	0	0	0	443	
4	0	0	0	0	443	
5	0	0	0	0	443	
6	0	0	0	0	442	
7	0	0	0	0	441	
8	0	0	0	0	441	
9	0	0	0	0	441	
10	0	0	0	0	441	
11	0	0	0	0	441	
12	0	0	0	0	441	
13	0	0	0	0	439	
14	0	0	0	0	437	
15	0	0	0	0	437	
0	0	0	0	0	436	
1	0	0	0	0	436	
2	0	0	0	0	436	
3	0	0	0	0	436	
4	0	0	0	0	436	
5	0	0	0	0	439	
6	0	0	0	0	439	
7	0	0	0	0	439	
8	0	0	0	0	440	
9	0	0	0	0	440	
10	0	0	0	0	441	
11	0	0	0	0	441	
12	0	0	0	0	441	
13	0	0	0	0	440	
14	0	0	0	0	439	
15	0	0	0	0	438	
0	0	0	0	0	437	
1	0	0	0	0	438	
2	0	0	0	0	438	
3	0	0	0	0	439	
4	0	0	0	0	438	
5	0	0	0	0	438	
6	0	0	0	0	438	
7	0	0	0	0	439	
8	0	0	0	0	440	
9	0	0	0	0	440	
10	0	0	0	0	440	
11	0	0	0	0	439	
12	0	0	0	0	440	
13	0	0	0	0	438	
14	0	0	0	0	437	
15	0	0	0	0	436	
0	0	0	0	0	436	
1	0	0	0	0	436	
2	0	0	0	0	435	
3	0	0	0	0	435	
4	0	0	0	0	434	
5	0	0	0	0	435	
6	0	0	0	0	435	
7	0	0	0	0	435	
8	0	0	0	0	434	
9	0	0	0	0	433	
10	0	0	0	0	432	
11	0	0	0	0	433	
12	0	0	0	0	434	
13	0	0	0	0	434	
14	0	0	0	0	434	
15	0	0	0	0	434	
0	0	0	0	0	433	
1	0	0	0	0	432	
2	0	0	0	0	431	
3	0	0	0	0	431	
4	0	0	0	0	430	
5	0	0	0	0	430	
6	0	0	0	0	430	
7	0	0	0	0	430	
8	0	0	0	0	429	
9	0	0	0	0	428	
10	0	0	0	0	429	
11	0	0	0	0	428	
12	0	0	0	0	428	
13	0	0	0	0	427	
14	0	0	0	0	427	
15	0	0	0	0	427	
0	0	0	0	0	427	
1	0	0	0	0	427	
2	0	0	0	0	426	
3	0	0	0	0	425	
4	0	0	0	0	424	
5	0	0	0	0	423	
6	0	0	0	0	423	
7	0	0	0	0	423	
8	0	0	0	0	422	
9	0	0	0	0	420	
10	0	0	0	0	420	
11	0	0	0	0	419	
12	0	0	0	0	419	
13	0	0	0	0	419	
14	0	0	0	0	418	
15	0	0	0	0	417	
0	0	0	0	0	415	
1	0	0	0	0	415	
2	0	0	0	0	414	
3	0	0	0	0	412	
4	0	0	0	0	410	
5	0	0	0	0	408	
6	0	0	0	0	408	
7	0	0	0	0	408	
8	0	0	0	0	408	
9	0	0	0	0	407	
10	0	0	0	0	406	
11	0	0	0	0	407	
12	0	0	0	0	406	
13	0	0	0	0	405	
14	0	0	0	0	405	
15	0	0	0	0	404	
0	0	0	0	0	403	
1	0	0	0	0	401	
2	0	0	0	0	401	
3	0	0	0	0	401	
4	0	0	0	0	401	
5	0	0	0	0	401	
6	0	0	0	0	401	
7	0	0	0	0	403	
8	0	0	0	0	404	
9	0	0	0	0	405	
10	0	0	0	0	406	
11	0	0	0	0	407	
12	0	0	0	0	409	
13	0	0	0	0	410	
14	0	0	0	0	409	
15	0	0	0	0	410	
0	0	0	0	0	411	
1	0	0	0	0	412	
2	0	0	0	0	413	
3	0	0	0	0	415	
4	0	0	0	0	417	
5	0	0	0	0	419	
6	0	0	0	0	420	
7	0	0	0	0	422	
8	0	0	0	0	422	
9	0	0	0	0	423	
10	0	0	0	0	424	
11	0	0	0	0	426	
12	0	0	0	0	428	
13	0	0	0	0	430	
14	0	0	0	0	432	
15	0	0	0	0	435	
0	0	0	0	0	437	
1	0	0	0	0	439	
2	0	0	0	0	440	
3	0	0	0	0	441	
4	0	0	0	0	444	
5	0	0	0	0	446	
6	0	0	0	0	448	
7	0	0	0	0	449	
8	0	0	0	0	451	
9	0	0	0	0	454	
10	0	0	0	0	456	
11	0	0	0	0	461	
12	0	0	0	0	464	
13	0	0	0	0	468	
14	0	0	0	0	471	
15	0	0	0	0	474	
0	0	0	0	0	477	
1	0	0	0	0	479	
2	0	0	0	0	482	
3	0	0	0	0	484	
4	0	0	0	0	487	
5	0	0	0	0	491	
6	0	0	0	0	494	
7	0	0	0	0	497	
8	0	0	0	0	499	
9	0	0	0	0	502	
10	0	0	0	0	505	
11	0	0	0	0	509	
12	0	0	0	0	512	
13	0	0	0	0	515	
14	0	0	0	0	518	
15	0	0	0	0	522	
0	0	0	0	0	525	
1	0	0	0	0	528	
2	0	0	0	0	530	
3	0	0	0	0	532	
4	0	0	0	0	536	
5	0	0	0	0	539	
6	0	0	0	0	540	
7	0	0	0	0	543	
8	0	0	0	0	545	
9	0	0	0	0	547	
10	0	0	0	0	550	
11	0	0	0	0	552	
12	0	0	0	0	555	
13	0	0	0	0	557	
14	0	0	0	0	560	
15	0	0	0	0	563	
0	0	0	0	0	565	
1	0	0	0	0	567	
2	0	0	0	0	569	
3	0	0	0	0	570	
4	0	0	0	0	571	
5	0	0	0	0	573	
6	0	0	0	0	574	
7	0	0	0	0	575	
8	0	0	0	0	577	
9	0	0	0	0	578	
10	0	0	0	0	577	
11	0	0	0	0	579	
12	0	0	0	0	580	
13	0	0	0	0	582	
14	0	0	0	0	583	
15	0	0	0	0	584	
0	0	0	0	0	586	
1	0	0	0	0	588	
2	0	0	0	0	588	
3	0	0	0	0	589	
4	0	0	0	0	589	
5	0	0	0	0	589	
6	0	0	0	0	589	
7	0	0	0	0	589	
8	0	0	0	0	589	
9	0	0	0	0	590	
10	0	0	0	0	590	
11	0	0	0	0	589	
12	0	0	0	0	588	
13	0	0	0	0	587	
14	0	0	0	0	587	
15	0	0	0	0	586	
0	0	0	0	0	587	
1	0	0	0	0	588	
2	0	0	0	0	588	
3	0	0	0	0	589	
4	0	0	0	0	588	
5	0	0	0	0	588	
6	0	0	0	0	588	
7	0	0	0	0	588	
8	0	0	0	0	589	
9	0	0	0	0	588	
10	0	0	0	0	587	
11	0	0	0	0	585	
12	0	0	0	0	584	
13	0	0	0	0	584	
14	0	0	0	0	584	
15	0	0	0	0	583	
0	0	0	0	0	583	
1	0	0	0	0	582	
2	0	0	0	0	582	
3	0	0	0	0	582	
4	0	0	0	0	582	
5	0	0	0	0	582	
6	0	0	0	0	580	
7	0	0	0	0	579	
8	0	0	0	0	578	
9	0	0	0	0	577	
10	0	0	0	0	576	
11	0	0	0	0	576	
12	0	0	0	0	576	
13	0	0	0	0	576	
14	0	0	0	0	576	
15	0	0	0	0	576	
0	0	0	0	0	575	
1	0	0	0	0	574	
2	0	0	0	0	573	
3	0	0	0	0	572	
4	0	0	0	0	572	
5	0	0	0	0	571	
6	0	0	0	0	571	
7	0	0	0	0	570	
8	0	0	0	0	570	
9	0	0	0	0	570	
10	0	0	0	0	569	
11	0	0	0	0	568	
12	0	0	0	0	566	
13	0	0	0	0	564	
14	0	0	0	0	563	
15	0	0	0	0	562	
0	0	0	0	0	563	
1	0	0	0	0	562	
2	0	0	0	0	562	
3	0	0	0	0	562	
4	0	0	0	0	562	
5	0	0	0	0	561	
6	0	0	0	0	561	
7	0	0	0	0	560	
8	0	0	0	0	559	
9	0	0	0	0	559	
10	0	0	0	0	558	
11	0	0	0	0	557	
12	0	0	0	0	556	
13	0	0	0	0	555	
14	0	0	0	0	555	
15	0	0	0	0	553	
0	0	0	0	0	552	
1	0	0	0	0	551	
2	0	0	0	0	551	
3	0	0	0	0	551	
4	0	0	0	0	551	
5	0	0	0	0	552	
6	0	0	0	0	552	
7	0	0	0	0	552	
8	0	0	0	0	552	
9	0	0	0	0	551	
10	0	0	0	0	551	
11	0	0	0	0	550	
12	0	0	0	0	550	
13	0	0	0	0	549	
14	0	0	0	0	548	
15	0	0	0	0	547	
0	0	0	0	0	546	
1	0	0	0	0	545	
2	0	0	0	0	544	
3	0	0	0	0	544	
4	0	0	0	0	544	
5	0	0	0	0	543	
6	0	0	0	0	543	
7	0	0	0	0	543	
8	0	0	0	0	543	
9	0	0	0	0	543	
10	0	0	0	0	544	
11	0	0	0	0	543	
12	0	0	0	0	542	
13	0	0	0	0	540	
14	0	0	0	0	539	
15	0	0	0	0	538	
0	0	0	0	0	538	
1	0	0	0	0	538	
2	0	0	0	0	538	
3	0	0	0	0	538	
4	0	0	0	0	537	
5	0	0	0	0	538	
6	0	0	0	0	538	
7	0	0	0	0	537	
8	0	0	0	0	536	
9	0	0	0	0	536	
10	0	0	0	0	535	
11	0	0	0	0	535	
12	0	0	0	0	534	
13	0	0	0	0	533	
14	0	0	0	0	532	
15	0	0	0	0	531	
0	0	0	0	0	530	
1	0	0	0	0	529	
2	0	0	0	0	529	
3	0	0	0	0	530	
4	0	0	0	0	531	
5	0	0	0	0	532	
6	0	0	0	0	533	
7	0	0	0	0	533	
8	0	0	0	0	531	
9	0	0	0	0	530	
10	0	0	0	0	529	
11	0	0	0	0	528	
12	0	0	0	0	528	
13	0	0	0	0	528	
14	0	0	0	0	527	
15	0	0	0	0	528	
0	0	0	0	0	527	
1	0	0	0	0	527	
2	0	0	0	0	527	
3	0	0	0	0	527	
4	0	0	0	0	527	
5	0	0	0	0	527	
6	0	0	0	0	528	
7	0	0	0	0	527	
8	0	0	0	0	527	
9	0	0	0	0	528	
10	0	0	0	0	527	
11	0	0	0	0	527	
12	0	0	0	0	527	
13	0	0	0	0	526	
14	0	0	0	0	526	
15	0	0	0	0	525	
0	0	0	0	0	525	
1	0	0	0	0	525	
2	0	0	0	0	524	
3	0	0	0	0	523	
4	0	0	0	0	524	
5	0	0	0	0	524	
6	0	0	0	0	524	
7	0	0	0	0	525	
8	0	0	0	0	526	
9	0	0	0	0	527	
10	0	0	0	0	527	
11	0	0	0	0	526	
12	0	0	0	0	525	
13	0	0	0	0	525	
14	0	0	0	0	523	
15	0	0	0	0	522	
0	0	0	0	0	522	
1	0	0	0	0	523	
2	0	0	0	0	523	
3	0	0	0	0	522	
4	0	0	0	0	522	
5	0	0	0	0	522	
6	0	0	0	0	523	
7	0	0	0	0	524	
8	0	0	0	0	524	
9	0	0	0	0	524	
10	0	0	0	0	524	
11	0	0	0	0	524	
12	0	0	0	0	522	
13	0	0	0	0	521	
14	0	0	0	0	521	
15	0	0	0	0	520	
0	0	0	0	0	520	
1	0	0	0	0	519	
2	0	0	0	0	519	
3	0	0	0	0	519	
4	0	0	0	0	519	
5	0	0	0	0	519	
6	0	0	0	0	519	
7	0	0	0	0	519	
8	0	0	0	0	520	
9	0	0	0	0	521	
10	0	0	0	0	521	
11	0	0	0	0	521	
12	0	0	0	0	520	
13	0	0	0	0	519	
14	0	0	0	0	519	
15	0	0	0	0	519	
0	0	0	0	0	518	
1	0	0	0	0	518	
2	0	0	0	0	518	
3	0	0	0	0	517	
4	0	0	0	0	517	
5	0	0	0	0	516	
6	0	0	0	0	516	
7	0	0	0	0	516	
8	0	0	0	0	516	
9	0	0	0	0	516	
10	0	0	0	0	516	
11	0	0	0	0	517	
12	0	0	0	0	517	
13	0	0	0	0	518	
14	0	0	0	0	518	
15	0	0	0	0	516	
0	0	0	0	0	514	
1	0	0	0	0	513	
2	0	0	0	0	515	
3	0	0	0	0	515	
4	0	0	0	0	514	
5	0	0	0	0	513	
6	0	0	0	0	514	
7	0	0	0	0	515	
8	0	0	0	0	516	
9	0	0	0	0	518	
10	0	0	0	0	519	
11	0	0	0	0	519	
12	0	0	0	0	519	
13	0	0	0	0	518	
14	0	0	0	0	517	
15	0	0	0	0	517	
0	0	0	0	0	517	
1	0	0	0	0	516	
2	0	0	0	0	516	
3	0	0	0	0	517	
4	0	0	0	0	517	
5	0	0	0	0	516	
6	0	0	0	0	515	
7	0	0	0	0	516	
8	0	0	0	0	515	
9	0	0	0	0	514	
10	0	0	0	0	514	
11	0	0	0	0	514	
12	0	0	0	0	514	
13	0	0	0	0	514	
14	0	0	0	0	515	
15	0	0	0	0	514	
0	0	0	0	0	514	
1	0	0	0	0	513	
2	0	0	0	0	512	
3	0	0	0	0	512	
4	0	0	0	0	513	
5	0	0	0	0	512	
6	0	0	0	0	512	
7	0	0	0	0	512	
8	0	0	0	0	512	
9	0	0	0	0	512	
10	0	0	0	0	512	
11	0	0	0	0	512	
12	0	0	0	0	513	
13	0	0	0	0	513	
14	0	0	0	0	512	
15	0	0	0	0	512	
0	0	0	0	0	512	
1	0	0	0	0	513	
2	0	0	0	0	514	
3	0	0	0	0	513	
4	0	0	0	0	513	
5	0	0	0	0	513	
6	0	0	0	0	513	
7	0	0	0	0	514	
8	0	0	0	0	515	
9	0	0	0	0	515	
10	0	0	0	0	516	
11	0	0	0	0	516	
12	0	0	0	0	515	
13	0	0	0	0	515	
14	0	0	0	0	515	
15	0	0	0	0	515	
0	0	0	0	0	515	
1	0	0	0	0	514	
2	0	0	0	0	513	
3	0	0	0	0	513	
4	0	0	0	0	512	
5	0	0	0	0	512	
6	0	0	0	0	513	
7	0	0	0	0	514	
8	0	0	0	0	514	
9	0	0	0	0	514	
10	0	0	0	0	514	
11	0	0	0	0	514	
12	0	0	0	0	515	
13	0	0	0	0	515	
14	0	0	0	0	514	
15	0	0	0	0	513	
0	0	0	0	0	512	
1	0	0	0	0	511	
2	0	0	0	0	510	
3	0	0	0	0	510	
4	0	0	0	0	511	
5	0	0	0	0	511	
6	0	0	0	0	511	
7	0	0	0	0	511	
8	0	0	0	0	511	
9	0	0	0	0	512	
10	0	0	0	0	511	
11	0	0	0	0	511	
12	0	0	0	0	510	
13	0	0	0	0	510	
14	0	0	0	0	510	
15	0	0	0	0	510	
0	0	0	0	0	511	
1	0	0	0	0	511	
2	0	0	0	0	511	
3	0	0	0	0	512	
4	0	0	0	0	512	
5	0	0	0	0	512	
6	0	0	0	0	512	
7	0	0	0	0	512	
8	0	0	0	0	512	
9	0	0	0	0	510	
10	0	0	0	0	508	
11	0	0	0	0	508	
12	0	0	0	0	508	
13	0	0	0	0	508	
14	0	0	0	0	507	
15	0	0	0	0	507	
0	0	0	0	0	507	
1	0	0	0	0	507	
2	0	0	0	0	508	
3	0	0	0	0	508	
4	0	0	0	0	508	
5	0	0	0	0	508	
6	0	0	0	0	509	
7	0	0	0	0	509	
8	0	0	0	0	510	
9	0	0	0	0	510	
10	0	0	0	0	510	
11	0	0	0	0	511	
12	0	0	0	0	511	
13	0	0	0	0	512	
14	0	0	0	0	512	
15	0	0	0	0	511	
0	0	0	0	0	511	
1	0	0	0	0	511	
2	0	0	0	0	510	
3	0	0	0	0	510	
4	0	0	0	0	510	
5	0	0	0	0	508	
6	0	0	0	0	507	
7	0	0	0	0	505	
8	0	0	0	0	503	
9	0	0	0	0	502	
10	0	0	0	0	502	
11	0	0	0	0	500	
12	0	0	0	0	498	
13	0	0	0	0	497	
14	0	0	0	0	497	
15	0	0	0	0	496	
0	0	0	0	0	495	
1	0	0	0	0	494	
2	0	0	0	0	494	
3	0	0	0	0	493	
4	0	0	0	0	493	
5	0	0	0	0	491	
6	0	0	0	0	490	
7	0	0	0	0	489	
8	0	0	0	0	488	
9	0	0	0	0	487	
10	0	0	0	0	486	
11	0	0	0	0	485	
12	0	0	0	0	484	
13	0	0	0	0	483	
14	0	0	0	0	483	
15	0	0	0	0	482	
0	0	0	0	0	483	
1	0	0	0	0	483	
2	0	0	0	0	483	
3	0	0	0	0	483	
4	0	0	0	0	484	
5	0	0	0	0	484	
6	0	0	0	0	484	
7	0	0	0	0	484	
8	0	0	0	0	485	
9	0	0	0	0	486	
10	0	0	0	0	486	
11	0	0	0	0	487	
12	0	0	0	0	489	
13	0	0	0	0	491	
14	0	0	0	0	492	
15	0	0	0	0	494	
0	0	0	0	0	496	
1	0	0	0	0	498	
2	0	0	0	0	499	
3	0	0	0	0	501	
4	0	0	0	0	503	
5	0	0	0	0	504	
6	0	0	0	0	505	
7	0	0	0	0	507	
8	0	0	0	0	508	
9	0	0	0	0	509	
10	0	0	0	0	510	
11	0	0	0	0	511	
12	0	0	0	0	512	
13	0	0	0	0	513	
14	0	0	0	0	514	
15	0	0	0	0	515	
0	0	0	0	0	515	
1	0	0	0	0	516	
2	0	0	0	0	516	
3	0	0	0	0	517	
4	0	0	0	0	518	
5	0	0	0	0	518	
6	0	0	0	0	519	
7	0	0	0	0	519	
8	0	0	0	0	517	
9	0	0	0	0	516	
10	0	0	0	0	517	
11	0	0	0	0	517	
12	0	0	0	0	518	
13	0	0	0	0	519	
14	0	0	0	0	520	
15	0	0	0	0	520	
0	0	0	0	0	519	
1	0	0	0	0	520	
2	0	0	0	0	522	
3	0	0	0	0	523	
4	0	0	0	0	522	
5	0	0	0	0	521	
6	0	0	0	0	520	
7	0	0	0	0	519	
8	0	0	0	0	519	
9	0	0	0	0	519	
10	0	0	0	0	518	
11	0	0	0	0	517	
12	0	0	0	0	517	
13	0	0	0	0	516	
14	0	0	0	0	517	
15	0	0	0	0	518	
0	0	0	0	0	518	
1	0	0	0	0	519	
2	0	0	0	0	519	
3	0	0	0	0	519	
4	0	0	0	0	519	
5	0	0	0	0	519	
6	0	0	0	0	517	
7	0	0	0	0	515	
8	0	0	0	0	511	
9	0	0	0	0	507	
10	0	0	0	0	502	
11	0	0	0	0	496	
12	0	0	0	0	490	
13	0	0	0	0	482	
14	0	0	0	0	474	
15	0	0	0	0	467	
0	0	0	0	0	460	
1	0	0	0	0	451	
2	0	0	0	0	444	
3	0	0	0	0	436	
4	0	0	0	0	427	
5	0	0	0	0	419	
6	0	0	0	0	411	
7	0	0	0	0	404	
8	0	0	0	0	399	
9	0	0	0	0	393	
10	0	0	0	0	387	
11	0	0	0	0	382	
12	0	0	0	0	376	
13	0	0	0	0	369	
14	0	0	0	0	362	
15	0	0	0	0	355	
0	0	0	0	0	347	
1	0	0	0	0	342	
2	0	0	0	0	339	
3	0	0	0	0	337	
4	0	0	0	0	338	
5	0	0	0	0	340	
6	0	0	0	0	344	
7	0	0	0	0	351	
8	0	0	0	0	360	
9	0	0	0	0	372	
10	0	0	0	0	388	
11	0	0	0	0	408	
12	0	0	0	0	430	
13	0	0	0	0	451	
14	0	0	0	0	473	
15	0	0	0	0	498	
0	0	0	0	0	524	
1	0	0	0	0	553	
2	0	0	0	0	582	
3	0	0	0	0	612	
4	0	0	0	0	642	
5	0	0	0	0	675	
6	0	0	0	0	707	
7	0	0	0	0	737	
8	0	0	0	0	761	
9	0	0	0	0	780	
10	0	0	0	0	793	
11	0	0	0	0	803	
12	0	0	0	0	810	
13	0	0	0	0	816	
14	0	0	0	0	818	
15	0	0	0	0	818	
0	0	0	0	0	816	
1	0	0	0	0	810	
2	0	0	0	0	802	
3	0	0	0	0	793	
4	0	0	0	0	784	
5	0	0	0	0	775	
6	0	0	0	0	766	
7	0	0	0	0	758	
8	0	0	0	0	750	
9	0	0	0	0	742	
10	0	0	0	0	734	
11	0	0	0	0	723	
12	0	0	0	0	711	
13	0	0	0	0	701	
14	0	0	0	0	691	
15	0	0	0	0	681	
0	0	0	0	0	671	
1	0	0	0	0	659	
2	0	0	0	0	647	
3	0	0	0	0	635	
4	0	0	0	0	623	
5	0	0	0	0	612	
6	0	0	0	0	601	
7	0	0	0	0	591	
8	0	0	0	0	582	
9	0	0	0	0	574	
10	0	0	0	0	566	
11	0	0	0	0	557	
12	0	0	0	0	550	
13	0	0	0	0	542	
14	0	0	0	0	534	
15	0	0	0	0	524	
0	0	0	0	0	516	
1	0	0	0	0	509	
2	0	0	0	0	505	
3	0	0	0	0	500	
4	0	0	0	0	496	
5	0	0	0	0	492	
6	0	0	0	0	488	
7	0	0	0	0	483	
8	0	0	0	0	479	
9	0	0	0	0	476	
10	0	0	0	0	473	
11	0	0	0	0	471	
12	0	0	0	0	468	
13	0	0	0	0	466	
14	0	0	0	0	464	
15	0	0	0	0	462	
0	0	0	0	0	460	
1	0	0	0	0	458	
2	0	0	0	0	456	
3	0	0	0	0	455	
4	0	0	0	0	454	
5	0	0	0	0	452	
6	0	0	0	0	452	
7	0	0	0	0	452	
8	0	0	0	0	451	
9	0	0	0	0	451	
10	0	0	0	0	450	
11	0	0	0	0	450	
12	0	0	0	0	449	
13	0	0	0	0	448	
14	0	0	0	0	448	
15	0	0	0	0	447	
0	0	0	0	0	446	
1	0	0	0	0	445	
2	0	0	0	0	444	
3	0	0	0	0	444	
4	0	0	0	0	444	
5	0	0	0	0	445	
6	0	0	0	0	446	
7	0	0	0	0	446	
8	0	0	0	0	446	
9	0	0	0	0	447	
10	0	0	0	0	447	
11	0	0	0	0	447	
12	0	0	0	0	446	
13	0	0	0	0	445	
14	0	0	0	0	444	
15	0	0	0	0	444	
0	0	0	0	0	445	
1	0	0	0	0	447	
2	0	0	0	0	446	
3	0	0	0	0	445	
4	0	0	0	0	444	
5	0	0	0	0	446	
6	0	0	0	0	446	
7	0	0	0	0	446	
8	0	0	0	0	447	
9	0	0	0	0	447	
10	0	0	0	0	448	
11	0	0	0	0	448	
12	0	0	0	0	447	
13	0	0	0	0	447	
14	0	0	0	0	446	
15	0	0	0	0	445	
0	0	0	0	0	445	
1	0	0	0	0	445	
2	0	0	0	0	444	
3	0	0	0	0	443	
4	0	0	0	0	443	
5	0	0	0	0	444	
6	0	0	0	0	444	
7	0	0	0	0	445	
8	0	0	0	0	445	
9	0	0	0	0	444	
10	0	0	0	0	444	
11	0	0	0	0	445	
12	0	0	0	0	445	
13	0	0	0	0	444	
14	0	0	0	0	443	
15	0	0	0	0	444	
0	0	0	0	0	443	
1	0	0	0	0	443	
2	0	0	0	0	443	
3	0	0	0	0	442	
4	0	0	0	0	443	
5	0	0	0	0	443	
6	0	0	0	0	441	
7	0	0	0	0	441	
8	0	0	0	0	441	
9	0	0	0	0	440	
10	0	0	0	0	441	
11	0	0	0	0	441	
12	0	0	0	0	442	
13	0	0	0	0	441	
14	0	0	0	0	441	
15	0	0	0	0	440	
0	0	0	0	0	440	
1	0	0	0	0	440	
2	0	0	0	0	440	
3	0	0	0	0	439	
4	0	0	0	0	438	
5	0	0	0	0	436	
6	0	0	0	0	433	
7	0	0	0	0	433	
8	0	0	0	0	434	
9	0	0	0	0	435	
10	0	0	0	0	436	
11	0	0	0	0	435	
12	0	0	0	0	435	
13	0	0	0	0	436	
14	0	0	0	0	437	
15	0	0	0	0	436	
0	0	0	0	0	435	
1	0	0	0	0	434	
2	0	0	0	0	431	
3	0	0	0	0	430	
4	0	0	0	0	428	
5	0	0	0	0	426	
6	0	0	0	0	424	
7	0	0	0	0	423	
8	0	0	0	0	423	
9	0	0	0	0	422	
10	0	0	0	0	422	
11	0	0	0	0	421	
12	0	0	0	0	421	
13	0	0	0	0	421	
14	0	0	0	0	421	
15	0	0	0	0	420	
0	0	0	0	0	419	
1	0	0	0	0	416	
2	0	0	0	0	415	
3	0	0	0	0	414	
4	0	0	0	0	413	
5	0	0	0	0	411	
6	0	0	0	0	409	
7	0	0	0	0	408	
8	0	0	0	0	408	
9	0	0	0	0	408	
10	0	0	0	0	410	
11	0	0	0	0	410	
12	0	0	0	0	410	
13	0	0	0	0	408	
14	0	0	0	0	408	
15	0	0	0	0	408	
0	0	0	0	0	409	
1	0	0	0	0	409	
2	0	0	0	0	410	
3	0	0	0	0	409	
4	0	0	0	0	407	
5	0	0	0	0	406	
6	0	0	0	0	407	
7	0	0	0	0	408	
8	0	0	0	0	410	
9	0	0	0	0	410	
10	0	0	0	0	409	
11	0	0	0	0	411	
12	0	0	0	0	413	
13	0	0	0	0	415	
14	0	0	0	0	416	
15	0	0	0	0	416	
0	0	0	0	0	415	
1	0	0	0	0	415	
2	0	0	0	0	417	
3	0	0	0	0	417	
4	0	0	0	0	419	
5	0	0	0	0	420	
6	0	0	0	0	422	
7	0	0	0	0	424	
8	0	0	0	0	428	
9	0	0	0	0	430	
10	0	0	0	0	433	
11	0	0	0	0	433	
12	0	0	0	0	434	
13	0	0	0	0	438	
14	0	0	0	0	442	
15	0	0	0	0	443	
0	0	0	0	0	443	
1	0	0	0	0	445	
2	0	0	0	0	447	
3	0	0	0	0	451	
4	0	0	0	0	452	
5	0	0	0	0	453	
6	0	0	0	0	455	
7	0	0	0	0	457	
8	0	0	0	0	459	
9	0	0	0	0	462	
10	0	0	0	0	462	
11	0	0	0	0	462	
12	0	0	0	0	465	
13	0	0	0	0	471	
14	0	0	0	0	473	
15	0	0	0	0	478	
0	0	0	0	0	482	
1	0	0	0	0	487	
2	0	0	0	0	490	
3	0	0	0	0	492	
4	0	0	0	0	492	
5	0	0	0	0	492	
6	0	0	0	0	497	
7	0	0	0	0	502	
8	0	0	0	0	505	
9	0	0	0	0	509	
10	0	0	0	0	512	
11	0	0	0	0	516	
12	0	0	0	0	520	
13	0	0	0	0	523	
14	0	0	0	0	527	
15	0	0	0	0	530	
0	0	0	0	0	534	
1	0	0	0	0	536	
2	0	0	0	0	537	
3	0	0	0	0	540	
4	0	0	0	0	543	
5	0	0	0	0	545	
6	0	0	0	0	550	
7	0	0	0	0	555	
8	0	0	0	0	558	
