# OpenSignals Text File Format. Version 1
# {"98:D3:71:FD:62:1F": {"position": 0, "device": "bitalino_rev", "device name": "98:D3:71:FD:62:1F", "device connection": "BTH98:D3:71:FD:62:1F", "sampling rate": 1000, "resolution": [4, 1, 1, 1, 1, 10], "firmware version": 1282, "comments": "", "keywords": "", "mode": 0, "sync interval": 2, "date": "2023-4-12", "time": "11:42:22.335", "channels": [2], "sensor": ["ECGBIT"], "label": ["A2"], "column": ["nSeq", "I1", "I2", "O1", "O2", "A2"], "special": [{}], "digital IO": [0, 0, 1, 1]}}
# EndOfHeader
0	0	0	0	0	433	
1	0	0	0	0	434	
2	0	0	0	0	433	
3	0	0	0	0	433	
4	0	0	0	0	432	
5	0	0	0	0	432	
6	0	0	0	0	432	
7	0	0	0	0	433	
8	0	0	0	0	433	
9	0	0	0	0	433	
10	0	0	0	0	433	
11	0	0	0	0	433	
12	0	0	0	0	433	
13	0	0	0	0	432	
14	0	0	0	0	433	
15	0	0	0	0	433	
0	0	0	0	0	433	
1	0	0	0	0	434	
2	0	0	0	0	434	
3	0	0	0	0	433	
4	0	0	0	0	433	
5	0	0	0	0	433	
6	0	0	0	0	434	
7	0	0	0	0	433	
8	0	0	0	0	432	
9	0	0	0	0	433	
10	0	0	0	0	432	
11	0	0	0	0	432	
12	0	0	0	0	432	
13	0	0	0	0	432	
14	0	0	0	0	432	
15	0	0	0	0	431	
0	0	0	0	0	431	
1	0	0	0	0	431	
2	0	0	0	0	430	
3	0	0	0	0	429	
4	0	0	0	0	428	
5	0	0	0	0	426	
6	0	0	0	0	425	
7	0	0	0	0	424	
8	0	0	0	0	425	
9	0	0	0	0	426	
10	0	0	0	0	428	
11	0	0	0	0	429	
12	0	0	0	0	429	
13	0	0	0	0	427	
14	0	0	0	0	426	
15	0	0	0	0	425	
0	0	0	0	0	424	
1	0	0	0	0	424	
2	0	0	0	0	422	
3	0	0	0	0	420	
4	0	0	0	0	417	
5	0	0	0	0	415	
6	0	0	0	0	415	
7	0	0	0	0	416	
8	0	0	0	0	416	
9	0	0	0	0	417	
10	0	0	0	0	418	
11	0	0	0	0	416	
12	0	0	0	0	415	
13	0	0	0	0	413	
14	0	0	0	0	412	
15	0	0	0	0	409	
0	0	0	0	0	407	
1	0	0	0	0	406	
2	0	0	0	0	405	
3	0	0	0	0	403	
4	0	0	0	0	402	
5	0	0	0	0	401	
6	0	0	0	0	401	
7	0	0	0	0	399	
8	0	0	0	0	399	
9	0	0	0	0	398	
10	0	0	0	0	398	
11	0	0	0	0	398	
12	0	0	0	0	397	
13	0	0	0	0	397	
14	0	0	0	0	396	
15	0	0	0	0	396	
0	0	0	0	0	394	
1	0	0	0	0	393	
2	0	0	0	0	392	
3	0	0	0	0	392	
4	0	0	0	0	391	
5	0	0	0	0	390	
6	0	0	0	0	388	
7	0	0	0	0	388	
8	0	0	0	0	389	
9	0	0	0	0	391	
10	0	0	0	0	391	
11	0	0	0	0	393	
12	0	0	0	0	395	
13	0	0	0	0	396	
14	0	0	0	0	397	
15	0	0	0	0	398	
0	0	0	0	0	397	
1	0	0	0	0	397	
2	0	0	0	0	398	
3	0	0	0	0	399	
4	0	0	0	0	401	
5	0	0	0	0	400	
6	0	0	0	0	400	
7	0	0	0	0	400	
8	0	0	0	0	401	
9	0	0	0	0	403	
10	0	0	0	0	405	
11	0	0	0	0	406	
12	0	0	0	0	407	
13	0	0	0	0	408	
14	0	0	0	0	408	
15	0	0	0	0	409	
0	0	0	0	0	412	
1	0	0	0	0	415	
2	0	0	0	0	417	
3	0	0	0	0	419	
4	0	0	0	0	422	
5	0	0	0	0	424	
6	0	0	0	0	427	
7	0	0	0	0	430	
8	0	0	0	0	434	
9	0	0	0	0	436	
10	0	0	0	0	438	
11	0	0	0	0	440	
12	0	0	0	0	444	
13	0	0	0	0	447	
14	0	0	0	0	449	
15	0	0	0	0	453	
0	0	0	0	0	455	
1	0	0	0	0	458	
2	0	0	0	0	462	
3	0	0	0	0	465	
4	0	0	0	0	468	
5	0	0	0	0	471	
6	0	0	0	0	474	
7	0	0	0	0	478	
8	0	0	0	0	480	
9	0	0	0	0	484	
10	0	0	0	0	487	
11	0	0	0	0	491	
12	0	0	0	0	494	
13	0	0	0	0	498	
14	0	0	0	0	502	
15	0	0	0	0	505	
0	0	0	0	0	508	
1	0	0	0	0	511	
2	0	0	0	0	515	
3	0	0	0	0	519	
4	0	0	0	0	523	
5	0	0	0	0	525	
6	0	0	0	0	528	
7	0	0	0	0	532	
8	0	0	0	0	535	
9	0	0	0	0	538	
10	0	0	0	0	542	
11	0	0	0	0	546	
12	0	0	0	0	550	
13	0	0	0	0	551	
14	0	0	0	0	553	
15	0	0	0	0	556	
0	0	0	0	0	560	
1	0	0	0	0	563	
2	0	0	0	0	567	
3	0	0	0	0	570	
4	0	0	0	0	572	
5	0	0	0	0	574	
6	0	0	0	0	575	
7	0	0	0	0	575	
8	0	0	0	0	575	
9	0	0	0	0	575	
10	0	0	0	0	577	
11	0	0	0	0	579	
12	0	0	0	0	582	
13	0	0	0	0	583	
14	0	0	0	0	585	
15	0	0	0	0	588	
0	0	0	0	0	590	
1	0	0	0	0	591	
2	0	0	0	0	592	
3	0	0	0	0	591	
4	0	0	0	0	591	
5	0	0	0	0	591	
6	0	0	0	0	591	
7	0	0	0	0	591	
8	0	0	0	0	591	
9	0	0	0	0	592	
10	0	0	0	0	593	
11	0	0	0	0	595	
12	0	0	0	0	596	
13	0	0	0	0	595	
14	0	0	0	0	596	
15	0	0	0	0	598	
0	0	0	0	0	599	
1	0	0	0	0	598	
2	0	0	0	0	599	
3	0	0	0	0	600	
4	0	0	0	0	600	
5	0	0	0	0	598	
6	0	0	0	0	597	
7	0	0	0	0	596	
8	0	0	0	0	596	
9	0	0	0	0	595	
10	0	0	0	0	593	
11	0	0	0	0	592	
12	0	0	0	0	591	
13	0	0	0	0	593	
14	0	0	0	0	594	
15	0	0	0	0	594	
0	0	0	0	0	593	
1	0	0	0	0	593	
2	0	0	0	0	595	
3	0	0	0	0	594	
4	0	0	0	0	593	
5	0	0	0	0	590	
6	0	0	0	0	589	
7	0	0	0	0	588	
8	0	0	0	0	588	
9	0	0	0	0	588	
10	0	0	0	0	588	
11	0	0	0	0	587	
12	0	0	0	0	587	
13	0	0	0	0	586	
14	0	0	0	0	586	
15	0	0	0	0	586	
0	0	0	0	0	586	
1	0	0	0	0	587	
2	0	0	0	0	587	
3	0	0	0	0	586	
4	0	0	0	0	583	
5	0	0	0	0	582	
6	0	0	0	0	582	
7	0	0	0	0	581	
8	0	0	0	0	580	
9	0	0	0	0	578	
10	0	0	0	0	576	
11	0	0	0	0	575	
12	0	0	0	0	574	
13	0	0	0	0	574	
14	0	0	0	0	574	
15	0	0	0	0	574	
0	0	0	0	0	574	
1	0	0	0	0	574	
2	0	0	0	0	574	
3	0	0	0	0	572	
4	0	0	0	0	570	
5	0	0	0	0	569	
6	0	0	0	0	568	
7	0	0	0	0	567	
8	0	0	0	0	566	
9	0	0	0	0	563	
10	0	0	0	0	561	
11	0	0	0	0	561	
12	0	0	0	0	561	
13	0	0	0	0	560	
14	0	0	0	0	559	
15	0	0	0	0	558	
0	0	0	0	0	557	
1	0	0	0	0	557	
2	0	0	0	0	558	
3	0	0	0	0	560	
4	0	0	0	0	560	
5	0	0	0	0	560	
6	0	0	0	0	559	
7	0	0	0	0	558	
8	0	0	0	0	557	
9	0	0	0	0	556	
10	0	0	0	0	554	
11	0	0	0	0	552	
12	0	0	0	0	551	
13	0	0	0	0	551	
14	0	0	0	0	550	
15	0	0	0	0	550	
0	0	0	0	0	551	
1	0	0	0	0	551	
2	0	0	0	0	551	
3	0	0	0	0	551	
4	0	0	0	0	551	
5	0	0	0	0	550	
6	0	0	0	0	549	
7	0	0	0	0	548	
8	0	0	0	0	548	
9	0	0	0	0	547	
10	0	0	0	0	549	
11	0	0	0	0	550	
12	0	0	0	0	550	
13	0	0	0	0	548	
14	0	0	0	0	547	
15	0	0	0	0	546	
0	0	0	0	0	545	
1	0	0	0	0	543	
2	0	0	0	0	543	
3	0	0	0	0	541	
4	0	0	0	0	540	
5	0	0	0	0	539	
6	0	0	0	0	538	
7	0	0	0	0	538	
8	0	0	0	0	536	
9	0	0	0	0	536	
10	0	0	0	0	536	
11	0	0	0	0	536	
12	0	0	0	0	536	
13	0	0	0	0	535	
14	0	0	0	0	534	
15	0	0	0	0	533	
0	0	0	0	0	533	
1	0	0	0	0	532	
2	0	0	0	0	532	
3	0	0	0	0	532	
4	0	0	0	0	531	
5	0	0	0	0	531	
6	0	0	0	0	532	
7	0	0	0	0	532	
8	0	0	0	0	532	
9	0	0	0	0	531	
10	0	0	0	0	531	
11	0	0	0	0	530	
12	0	0	0	0	530	
13	0	0	0	0	529	
14	0	0	0	0	530	
15	0	0	0	0	531	
0	0	0	0	0	532	
1	0	0	0	0	531	
2	0	0	0	0	531	
3	0	0	0	0	530	
4	0	0	0	0	529	
5	0	0	0	0	528	
6	0	0	0	0	527	
7	0	0	0	0	526	
8	0	0	0	0	526	
9	0	0	0	0	525	
10	0	0	0	0	524	
11	0	0	0	0	523	
12	0	0	0	0	521	
13	0	0	0	0	522	
14	0	0	0	0	522	
15	0	0	0	0	522	
0	0	0	0	0	521	
1	0	0	0	0	521	
2	0	0	0	0	521	
3	0	0	0	0	521	
4	0	0	0	0	521	
5	0	0	0	0	522	
6	0	0	0	0	524	
7	0	0	0	0	524	
8	0	0	0	0	524	
9	0	0	0	0	526	
10	0	0	0	0	526	
11	0	0	0	0	527	
12	0	0	0	0	526	
13	0	0	0	0	525	
14	0	0	0	0	525	
15	0	0	0	0	523	
0	0	0	0	0	520	
1	0	0	0	0	519	
2	0	0	0	0	519	
3	0	0	0	0	520	
4	0	0	0	0	520	
5	0	0	0	0	521	
6	0	0	0	0	522	
7	0	0	0	0	522	
8	0	0	0	0	523	
9	0	0	0	0	521	
10	0	0	0	0	521	
11	0	0	0	0	520	
12	0	0	0	0	520	
13	0	0	0	0	519	
14	0	0	0	0	518	
15	0	0	0	0	517	
0	0	0	0	0	516	
1	0	0	0	0	516	
2	0	0	0	0	516	
3	0	0	0	0	517	
4	0	0	0	0	519	
5	0	0	0	0	519	
6	0	0	0	0	519	
7	0	0	0	0	519	
8	0	0	0	0	521	
9	0	0	0	0	524	
10	0	0	0	0	525	
11	0	0	0	0	525	
12	0	0	0	0	524	
13	0	0	0	0	523	
14	0	0	0	0	521	
15	0	0	0	0	518	
0	0	0	0	0	516	
1	0	0	0	0	513	
2	0	0	0	0	512	
3	0	0	0	0	511	
4	0	0	0	0	512	
5	0	0	0	0	513	
6	0	0	0	0	516	
7	0	0	0	0	518	
8	0	0	0	0	518	
9	0	0	0	0	519	
10	0	0	0	0	519	
11	0	0	0	0	518	
12	0	0	0	0	518	
13	0	0	0	0	518	
14	0	0	0	0	518	
15	0	0	0	0	518	
0	0	0	0	0	516	
1	0	0	0	0	515	
2	0	0	0	0	513	
3	0	0	0	0	512	
4	0	0	0	0	512	
5	0	0	0	0	513	
6	0	0	0	0	513	
7	0	0	0	0	515	
8	0	0	0	0	516	
9	0	0	0	0	518	
10	0	0	0	0	517	
11	0	0	0	0	515	
12	0	0	0	0	514	
13	0	0	0	0	514	
14	0	0	0	0	515	
15	0	0	0	0	515	
0	0	0	0	0	515	
1	0	0	0	0	515	
2	0	0	0	0	515	
3	0	0	0	0	516	
4	0	0	0	0	515	
5	0	0	0	0	515	
6	0	0	0	0	515	
7	0	0	0	0	514	
8	0	0	0	0	514	
9	0	0	0	0	514	
10	0	0	0	0	515	
11	0	0	0	0	515	
12	0	0	0	0	515	
13	0	0	0	0	514	
14	0	0	0	0	513	
15	0	0	0	0	512	
0	0	0	0	0	510	
1	0	0	0	0	510	
2	0	0	0	0	510	
3	0	0	0	0	509	
4	0	0	0	0	509	
5	0	0	0	0	509	
6	0	0	0	0	510	
7	0	0	0	0	511	
8	0	0	0	0	511	
9	0	0	0	0	511	
10	0	0	0	0	512	
11	0	0	0	0	513	
12	0	0	0	0	513	
13	0	0	0	0	513	
14	0	0	0	0	512	
15	0	0	0	0	511	
0	0	0	0	0	511	
1	0	0	0	0	510	
2	0	0	0	0	510	
3	0	0	0	0	509	
4	0	0	0	0	509	
5	0	0	0	0	510	
6	0	0	0	0	510	
7	0	0	0	0	512	
8	0	0	0	0	512	
9	0	0	0	0	512	
10	0	0	0	0	512	
11	0	0	0	0	512	
12	0	0	0	0	511	
13	0	0	0	0	509	
14	0	0	0	0	508	
15	0	0	0	0	508	
0	0	0	0	0	507	
1	0	0	0	0	507	
2	0	0	0	0	505	
3	0	0	0	0	504	
4	0	0	0	0	504	
5	0	0	0	0	506	
6	0	0	0	0	508	
7	0	0	0	0	507	
8	0	0	0	0	507	
9	0	0	0	0	508	
10	0	0	0	0	508	
11	0	0	0	0	509	
12	0	0	0	0	510	
13	0	0	0	0	510	
14	0	0	0	0	510	
15	0	0	0	0	508	
0	0	0	0	0	506	
1	0	0	0	0	507	
2	0	0	0	0	508	
3	0	0	0	0	509	
4	0	0	0	0	509	
5	0	0	0	0	509	
6	0	0	0	0	509	
7	0	0	0	0	508	
8	0	0	0	0	507	
9	0	0	0	0	506	
10	0	0	0	0	506	
11	0	0	0	0	506	
12	0	0	0	0	507	
13	0	0	0	0	508	
14	0	0	0	0	508	
15	0	0	0	0	508	
0	0	0	0	0	506	
1	0	0	0	0	505	
2	0	0	0	0	505	
3	0	0	0	0	505	
4	0	0	0	0	505	
5	0	0	0	0	504	
6	0	0	0	0	504	
7	0	0	0	0	503	
8	0	0	0	0	504	
9	0	0	0	0	504	
10	0	0	0	0	504	
11	0	0	0	0	505	
12	0	0	0	0	504	
13	0	0	0	0	505	
14	0	0	0	0	505	
15	0	0	0	0	504	
0	0	0	0	0	505	
1	0	0	0	0	507	
2	0	0	0	0	507	
3	0	0	0	0	506	
4	0	0	0	0	504	
5	0	0	0	0	504	
6	0	0	0	0	503	
7	0	0	0	0	503	
8	0	0	0	0	503	
9	0	0	0	0	504	
10	0	0	0	0	505	
11	0	0	0	0	506	
12	0	0	0	0	507	
13	0	0	0	0	508	
14	0	0	0	0	508	
15	0	0	0	0	509	
0	0	0	0	0	510	
1	0	0	0	0	510	
2	0	0	0	0	509	
3	0	0	0	0	508	
4	0	0	0	0	506	
5	0	0	0	0	505	
6	0	0	0	0	503	
7	0	0	0	0	502	
8	0	0	0	0	503	
9	0	0	0	0	503	
10	0	0	0	0	502	
11	0	0	0	0	501	
12	0	0	0	0	502	
13	0	0	0	0	504	
14	0	0	0	0	504	
15	0	0	0	0	503	
0	0	0	0	0	503	
1	0	0	0	0	505	
2	0	0	0	0	506	
3	0	0	0	0	506	
4	0	0	0	0	505	
5	0	0	0	0	505	
6	0	0	0	0	504	
7	0	0	0	0	504	
8	0	0	0	0	504	
9	0	0	0	0	504	
10	0	0	0	0	504	
11	0	0	0	0	505	
12	0	0	0	0	505	
13	0	0	0	0	505	
14	0	0	0	0	506	
15	0	0	0	0	507	
0	0	0	0	0	507	
1	0	0	0	0	506	
2	0	0	0	0	504	
3	0	0	0	0	504	
4	0	0	0	0	505	
5	0	0	0	0	506	
6	0	0	0	0	507	
7	0	0	0	0	506	
8	0	0	0	0	506	
9	0	0	0	0	505	
10	0	0	0	0	505	
11	0	0	0	0	504	
12	0	0	0	0	503	
13	0	0	0	0	503	
14	0	0	0	0	502	
15	0	0	0	0	501	
0	0	0	0	0	499	
1	0	0	0	0	499	
2	0	0	0	0	499	
3	0	0	0	0	498	
4	0	0	0	0	498	
5	0	0	0	0	497	
6	0	0	0	0	495	
7	0	0	0	0	494	
8	0	0	0	0	493	
9	0	0	0	0	492	
10	0	0	0	0	492	
11	0	0	0	0	492	
12	0	0	0	0	491	
13	0	0	0	0	489	
14	0	0	0	0	488	
15	0	0	0	0	488	
0	0	0	0	0	487	
1	0	0	0	0	487	
2	0	0	0	0	486	
3	0	0	0	0	485	
4	0	0	0	0	483	
5	0	0	0	0	482	
6	0	0	0	0	483	
7	0	0	0	0	481	
8	0	0	0	0	480	
9	0	0	0	0	478	
10	0	0	0	0	477	
11	0	0	0	0	479	
12	0	0	0	0	479	
13	0	0	0	0	480	
14	0	0	0	0	480	
15	0	0	0	0	481	
0	0	0	0	0	480	
1	0	0	0	0	481	
2	0	0	0	0	481	
3	0	0	0	0	480	
4	0	0	0	0	481	
5	0	0	0	0	481	
6	0	0	0	0	481	
7	0	0	0	0	481	
8	0	0	0	0	481	
9	0	0	0	0	482	
10	0	0	0	0	483	
11	0	0	0	0	485	
12	0	0	0	0	487	
13	0	0	0	0	488	
14	0	0	0	0	488	
15	0	0	0	0	488	
0	0	0	0	0	491	
1	0	0	0	0	494	
2	0	0	0	0	495	
3	0	0	0	0	496	
4	0	0	0	0	497	
5	0	0	0	0	497	
6	0	0	0	0	497	
7	0	0	0	0	499	
8	0	0	0	0	501	
9	0	0	0	0	502	
10	0	0	0	0	502	
11	0	0	0	0	502	
12	0	0	0	0	503	
13	0	0	0	0	505	
14	0	0	0	0	506	
15	0	0	0	0	507	
0	0	0	0	0	509	
1	0	0	0	0	511	
2	0	0	0	0	512	
3	0	0	0	0	513	
4	0	0	0	0	513	
5	0	0	0	0	513	
6	0	0	0	0	512	
7	0	0	0	0	512	
8	0	0	0	0	512	
9	0	0	0	0	512	
10	0	0	0	0	512	
11	0	0	0	0	512	
12	0	0	0	0	512	
13	0	0	0	0	512	
14	0	0	0	0	513	
15	0	0	0	0	514	
0	0	0	0	0	515	
1	0	0	0	0	515	
2	0	0	0	0	516	
3	0	0	0	0	516	
4	0	0	0	0	516	
5	0	0	0	0	517	
6	0	0	0	0	519	
7	0	0	0	0	519	
8	0	0	0	0	518	
9	0	0	0	0	518	
10	0	0	0	0	517	
11	0	0	0	0	516	
12	0	0	0	0	517	
13	0	0	0	0	519	
14	0	0	0	0	519	
15	0	0	0	0	517	
0	0	0	0	0	516	
1	0	0	0	0	515	
2	0	0	0	0	513	
3	0	0	0	0	513	
4	0	0	0	0	512	
5	0	0	0	0	511	
6	0	0	0	0	508	
7	0	0	0	0	504	
8	0	0	0	0	500	
9	0	0	0	0	495	
10	0	0	0	0	488	
11	0	0	0	0	481	
12	0	0	0	0	473	
13	0	0	0	0	465	
14	0	0	0	0	457	
15	0	0	0	0	450	
0	0	0	0	0	442	
1	0	0	0	0	433	
2	0	0	0	0	424	
3	0	0	0	0	415	
4	0	0	0	0	405	
5	0	0	0	0	397	
6	0	0	0	0	390	
7	0	0	0	0	383	
8	0	0	0	0	376	
9	0	0	0	0	366	
10	0	0	0	0	357	
11	0	0	0	0	350	
12	0	0	0	0	343	
13	0	0	0	0	335	
14	0	0	0	0	326	
15	0	0	0	0	318	
0	0	0	0	0	311	
1	0	0	0	0	306	
2	0	0	0	0	303	
3	0	0	0	0	301	
4	0	0	0	0	301	
5	0	0	0	0	302	
6	0	0	0	0	307	
7	0	0	0	0	314	
8	0	0	0	0	327	
9	0	0	0	0	345	
10	0	0	0	0	368	
11	0	0	0	0	391	
12	0	0	0	0	413	
13	0	0	0	0	436	
14	0	0	0	0	461	
15	0	0	0	0	488	
0	0	0	0	0	517	
1	0	0	0	0	547	
2	0	0	0	0	580	
3	0	0	0	0	612	
4	0	0	0	0	647	
5	0	0	0	0	683	
6	0	0	0	0	717	
7	0	0	0	0	749	
8	0	0	0	0	775	
9	0	0	0	0	795	
10	0	0	0	0	810	
11	0	0	0	0	821	
12	0	0	0	0	827	
13	0	0	0	0	831	
14	0	0	0	0	835	
15	0	0	0	0	834	
0	0	0	0	0	831	
1	0	0	0	0	826	
2	0	0	0	0	820	
3	0	0	0	0	814	
4	0	0	0	0	804	
5	0	0	0	0	793	
6	0	0	0	0	782	
7	0	0	0	0	774	
8	0	0	0	0	766	
9	0	0	0	0	756	
10	0	0	0	0	749	
11	0	0	0	0	739	
12	0	0	0	0	728	
13	0	0	0	0	715	
14	0	0	0	0	704	
15	0	0	0	0	693	
0	0	0	0	0	682	
1	0	0	0	0	671	
2	0	0	0	0	656	
3	0	0	0	0	643	
4	0	0	0	0	632	
5	0	0	0	0	623	
6	0	0	0	0	612	
7	0	0	0	0	600	
8	0	0	0	0	590	
9	0	0	0	0	579	
10	0	0	0	0	569	
11	0	0	0	0	559	
12	0	0	0	0	551	
13	0	0	0	0	543	
14	0	0	0	0	536	
15	0	0	0	0	528	
0	0	0	0	0	520	
1	0	0	0	0	512	
2	0	0	0	0	507	
3	0	0	0	0	502	
4	0	0	0	0	497	
5	0	0	0	0	493	
6	0	0	0	0	487	
7	0	0	0	0	484	
8	0	0	0	0	480	
9	0	0	0	0	477	
10	0	0	0	0	474	
11	0	0	0	0	472	
12	0	0	0	0	468	
13	0	0	0	0	465	
14	0	0	0	0	462	
15	0	0	0	0	459	
0	0	0	0	0	454	
1	0	0	0	0	450	
2	0	0	0	0	447	
3	0	0	0	0	445	
4	0	0	0	0	443	
5	0	0	0	0	443	
6	0	0	0	0	444	
7	0	0	0	0	444	
8	0	0	0	0	444	
9	0	0	0	0	443	
10	0	0	0	0	443	
11	0	0	0	0	443	
12	0	0	0	0	441	
13	0	0	0	0	441	
14	0	0	0	0	440	
15	0	0	0	0	439	
0	0	0	0	0	439	
1	0	0	0	0	438	
2	0	0	0	0	438	
3	0	0	0	0	437	
4	0	0	0	0	435	
5	0	0	0	0	436	
6	0	0	0	0	436	
7	0	0	0	0	436	
8	0	0	0	0	437	
9	0	0	0	0	438	
10	0	0	0	0	438	
11	0	0	0	0	438	
12	0	0	0	0	438	
13	0	0	0	0	437	
14	0	0	0	0	435	
15	0	0	0	0	434	
0	0	0	0	0	434	
1	0	0	0	0	434	
2	0	0	0	0	434	
3	0	0	0	0	434	
4	0	0	0	0	435	
5	0	0	0	0	436	
6	0	0	0	0	436	
7	0	0	0	0	436	
8	0	0	0	0	438	
9	0	0	0	0	438	
10	0	0	0	0	439	
11	0	0	0	0	439	
12	0	0	0	0	438	
13	0	0	0	0	438	
14	0	0	0	0	438	
15	0	0	0	0	437	
0	0	0	0	0	435	
1	0	0	0	0	433	
2	0	0	0	0	432	
3	0	0	0	0	432	
4	0	0	0	0	433	
5	0	0	0	0	433	
6	0	0	0	0	434	
7	0	0	0	0	434	
8	0	0	0	0	435	
9	0	0	0	0	434	
10	0	0	0	0	435	
11	0	0	0	0	436	
12	0	0	0	0	438	
13	0	0	0	0	438	
14	0	0	0	0	437	
15	0	0	0	0	438	
0	0	0	0	0	438	
1	0	0	0	0	437	
2	0	0	0	0	436	
3	0	0	0	0	436	
4	0	0	0	0	436	
5	0	0	0	0	435	
6	0	0	0	0	434	
7	0	0	0	0	435	
8	0	0	0	0	435	
9	0	0	0	0	437	
10	0	0	0	0	437	
11	0	0	0	0	436	
12	0	0	0	0	436	
13	0	0	0	0	435	
14	0	0	0	0	435	
15	0	0	0	0	434	
0	0	0	0	0	432	
1	0	0	0	0	431	
2	0	0	0	0	430	
3	0	0	0	0	429	
4	0	0	0	0	428	
5	0	0	0	0	428	
6	0	0	0	0	427	
7	0	0	0	0	426	
8	0	0	0	0	424	
9	0	0	0	0	422	
10	0	0	0	0	421	
11	0	0	0	0	420	
12	0	0	0	0	420	
13	0	0	0	0	420	
14	0	0	0	0	421	
15	0	0	0	0	419	
0	0	0	0	0	419	
1	0	0	0	0	418	
2	0	0	0	0	417	
3	0	0	0	0	418	
4	0	0	0	0	417	
5	0	0	0	0	417	
6	0	0	0	0	417	
7	0	0	0	0	416	
8	0	0	0	0	414	
9	0	0	0	0	411	
10	0	0	0	0	409	
11	0	0	0	0	409	
12	0	0	0	0	408	
13	0	0	0	0	407	
14	0	0	0	0	406	
15	0	0	0	0	406	
0	0	0	0	0	405	
1	0	0	0	0	403	
2	0	0	0	0	400	
3	0	0	0	0	399	
4	0	0	0	0	398	
5	0	0	0	0	397	
6	0	0	0	0	396	
7	0	0	0	0	396	
8	0	0	0	0	395	
9	0	0	0	0	395	
10	0	0	0	0	395	
11	0	0	0	0	396	
12	0	0	0	0	396	
13	0	0	0	0	395	
14	0	0	0	0	394	
15	0	0	0	0	393	
0	0	0	0	0	394	
1	0	0	0	0	394	
2	0	0	0	0	393	
3	0	0	0	0	393	
4	0	0	0	0	392	
5	0	0	0	0	391	
6	0	0	0	0	391	
7	0	0	0	0	389	
8	0	0	0	0	390	
9	0	0	0	0	393	
10	0	0	0	0	396	
11	0	0	0	0	399	
12	0	0	0	0	399	
13	0	0	0	0	399	
14	0	0	0	0	399	
15	0	0	0	0	401	
0	0	0	0	0	403	
1	0	0	0	0	404	
2	0	0	0	0	405	
3	0	0	0	0	406	
4	0	0	0	0	407	
5	0	0	0	0	408	
6	0	0	0	0	411	
7	0	0	0	0	413	
8	0	0	0	0	414	
9	0	0	0	0	414	
10	0	0	0	0	417	
11	0	0	0	0	418	
12	0	0	0	0	420	
13	0	0	0	0	422	
14	0	0	0	0	423	
15	0	0	0	0	427	
0	0	0	0	0	429	
1	0	0	0	0	432	
2	0	0	0	0	433	
3	0	0	0	0	435	
4	0	0	0	0	437	
5	0	0	0	0	440	
6	0	0	0	0	445	
7	0	0	0	0	447	
8	0	0	0	0	448	
9	0	0	0	0	450	
10	0	0	0	0	452	
11	0	0	0	0	456	
12	0	0	0	0	459	
13	0	0	0	0	462	
14	0	0	0	0	465	
15	0	0	0	0	469	
0	0	0	0	0	473	
1	0	0	0	0	476	
2	0	0	0	0	478	
3	0	0	0	0	483	
4	0	0	0	0	486	
5	0	0	0	0	488	
6	0	0	0	0	490	
7	0	0	0	0	493	
8	0	0	0	0	495	
9	0	0	0	0	498	
10	0	0	0	0	503	
11	0	0	0	0	508	
12	0	0	0	0	513	
13	0	0	0	0	517	
14	0	0	0	0	523	
15	0	0	0	0	526	
0	0	0	0	0	529	
1	0	0	0	0	531	
2	0	0	0	0	533	
3	0	0	0	0	536	
4	0	0	0	0	541	
5	0	0	0	0	544	
6	0	0	0	0	547	
7	0	0	0	0	549	
8	0	0	0	0	552	
9	0	0	0	0	555	
10	0	0	0	0	556	
11	0	0	0	0	558	
12	0	0	0	0	561	
13	0	0	0	0	564	
14	0	0	0	0	566	
15	0	0	0	0	569	
0	0	0	0	0	571	
1	0	0	0	0	572	
2	0	0	0	0	576	
3	0	0	0	0	580	
4	0	0	0	0	581	
5	0	0	0	0	583	
6	0	0	0	0	584	
7	0	0	0	0	585	
8	0	0	0	0	587	
9	0	0	0	0	588	
10	0	0	0	0	589	
11	0	0	0	0	591	
12	0	0	0	0	591	
13	0	0	0	0	593	
14	0	0	0	0	595	
15	0	0	0	0	597	
0	0	0	0	0	597	
1	0	0	0	0	597	
2	0	0	0	0	597	
3	0	0	0	0	597	
4	0	0	0	0	597	
5	0	0	0	0	597	
6	0	0	0	0	598	
7	0	0	0	0	600	
8	0	0	0	0	600	
9	0	0	0	0	599	
10	0	0	0	0	598	
11	0	0	0	0	597	
12	0	0	0	0	596	
13	0	0	0	0	596	
14	0	0	0	0	596	
15	0	0	0	0	596	
0	0	0	0	0	596	
1	0	0	0	0	597	
2	0	0	0	0	596	
3	0	0	0	0	596	
4	0	0	0	0	595	
5	0	0	0	0	593	
6	0	0	0	0	594	
7	0	0	0	0	594	
8	0	0	0	0	593	
9	0	0	0	0	593	
10	0	0	0	0	594	
11	0	0	0	0	594	
12	0	0	0	0	592	
13	0	0	0	0	592	
14	0	0	0	0	591	
15	0	0	0	0	592	
0	0	0	0	0	592	
1	0	0	0	0	591	
2	0	0	0	0	589	
3	0	0	0	0	587	
4	0	0	0	0	585	
5	0	0	0	0	585	
6	0	0	0	0	585	
7	0	0	0	0	587	
8	0	0	0	0	587	
9	0	0	0	0	586	
10	0	0	0	0	584	
11	0	0	0	0	582	
12	0	0	0	0	583	
13	0	0	0	0	583	
14	0	0	0	0	582	
15	0	0	0	0	580	
0	0	0	0	0	578	
1	0	0	0	0	576	
2	0	0	0	0	575	
3	0	0	0	0	576	
4	0	0	0	0	578	
5	0	0	0	0	578	
6	0	0	0	0	577	
7	0	0	0	0	577	
8	0	0	0	0	576	
9	0	0	0	0	576	
10	0	0	0	0	575	
11	0	0	0	0	574	
12	0	0	0	0	572	
13	0	0	0	0	571	
14	0	0	0	0	571	
15	0	0	0	0	569	
0	0	0	0	0	569	
1	0	0	0	0	569	
2	0	0	0	0	568	
3	0	0	0	0	568	
4	0	0	0	0	566	
5	0	0	0	0	565	
6	0	0	0	0	566	
7	0	0	0	0	567	
8	0	0	0	0	566	
9	0	0	0	0	566	
10	0	0	0	0	566	
11	0	0	0	0	566	
12	0	0	0	0	563	
13	0	0	0	0	560	
14	0	0	0	0	559	
15	0	0	0	0	558	
0	0	0	0	0	557	
1	0	0	0	0	556	
2	0	0	0	0	556	
3	0	0	0	0	557	
4	0	0	0	0	556	
5	0	0	0	0	556	
6	0	0	0	0	559	
7	0	0	0	0	560	
8	0	0	0	0	558	
9	0	0	0	0	555	
10	0	0	0	0	551	
11	0	0	0	0	547	
12	0	0	0	0	546	
13	0	0	0	0	548	
14	0	0	0	0	547	
15	0	0	0	0	545	
0	0	0	0	0	543	
1	0	0	0	0	542	
2	0	0	0	0	543	
3	0	0	0	0	544	
4	0	0	0	0	545	
5	0	0	0	0	546	
6	0	0	0	0	547	
7	0	0	0	0	548	
8	0	0	0	0	549	
9	0	0	0	0	548	
10	0	0	0	0	545	
11	0	0	0	0	541	
12	0	0	0	0	537	
13	0	0	0	0	537	
14	0	0	0	0	536	
15	0	0	0	0	535	
0	0	0	0	0	535	
1	0	0	0	0	535	
2	0	0	0	0	535	
3	0	0	0	0	534	
4	0	0	0	0	536	
5	0	0	0	0	539	
6	0	0	0	0	540	
7	0	0	0	0	540	
8	0	0	0	0	538	
9	0	0	0	0	535	
10	0	0	0	0	532	
11	0	0	0	0	534	
12	0	0	0	0	535	
13	0	0	0	0	534	
14	0	0	0	0	532	
15	0	0	0	0	531	
0	0	0	0	0	529	
1	0	0	0	0	530	
2	0	0	0	0	532	
3	0	0	0	0	532	
4	0	0	0	0	531	
5	0	0	0	0	532	
6	0	0	0	0	534	
7	0	0	0	0	532	
8	0	0	0	0	531	
9	0	0	0	0	532	
10	0	0	0	0	533	
11	0	0	0	0	533	
12	0	0	0	0	533	
13	0	0	0	0	531	
14	0	0	0	0	527	
15	0	0	0	0	525	
0	0	0	0	0	525	
1	0	0	0	0	526	
2	0	0	0	0	525	
3	0	0	0	0	525	
4	0	0	0	0	527	
5	0	0	0	0	528	
6	0	0	0	0	526	
7	0	0	0	0	521	
8	0	0	0	0	520	
9	0	0	0	0	521	
10	0	0	0	0	521	
11	0	0	0	0	521	
12	0	0	0	0	522	
13	0	0	0	0	521	
14	0	0	0	0	521	
15	0	0	0	0	520	
0	0	0	0	0	518	
1	0	0	0	0	518	
2	0	0	0	0	519	
3	0	0	0	0	520	
4	0	0	0	0	521	
5	0	0	0	0	521	
6	0	0	0	0	523	
7	0	0	0	0	525	
8	0	0	0	0	525	
9	0	0	0	0	525	
10	0	0	0	0	523	
11	0	0	0	0	523	
12	0	0	0	0	524	
13	0	0	0	0	525	
14	0	0	0	0	524	
15	0	0	0	0	524	
0	0	0	0	0	521	
1	0	0	0	0	519	
2	0	0	0	0	517	
3	0	0	0	0	517	
4	0	0	0	0	518	
5	0	0	0	0	519	
6	0	0	0	0	521	
7	0	0	0	0	523	
8	0	0	0	0	524	
9	0	0	0	0	525	
10	0	0	0	0	525	
11	0	0	0	0	526	
12	0	0	0	0	527	
13	0	0	0	0	525	
14	0	0	0	0	524	
15	0	0	0	0	524	
0	0	0	0	0	521	
1	0	0	0	0	517	
2	0	0	0	0	514	
3	0	0	0	0	512	
4	0	0	0	0	512	
5	0	0	0	0	514	
6	0	0	0	0	513	
7	0	0	0	0	512	
8	0	0	0	0	510	
9	0	0	0	0	510	
10	0	0	0	0	510	
11	0	0	0	0	511	
12	0	0	0	0	511	
13	0	0	0	0	511	
14	0	0	0	0	513	
15	0	0	0	0	515	
0	0	0	0	0	513	
1	0	0	0	0	513	
2	0	0	0	0	512	
3	0	0	0	0	512	
4	0	0	0	0	512	
5	0	0	0	0	512	
6	0	0	0	0	512	
7	0	0	0	0	512	
8	0	0	0	0	512	
9	0	0	0	0	513	
10	0	0	0	0	514	
11	0	0	0	0	514	
12	0	0	0	0	515	
13	0	0	0	0	516	
14	0	0	0	0	516	
15	0	0	0	0	515	
0	0	0	0	0	515	
1	0	0	0	0	513	
2	0	0	0	0	509	
3	0	0	0	0	508	
4	0	0	0	0	510	
5	0	0	0	0	511	
6	0	0	0	0	511	
7	0	0	0	0	512	
8	0	0	0	0	514	
9	0	0	0	0	515	
10	0	0	0	0	512	
11	0	0	0	0	511	
12	0	0	0	0	511	
13	0	0	0	0	513	
14	0	0	0	0	515	
15	0	0	0	0	516	
0	0	0	0	0	519	
1	0	0	0	0	519	
2	0	0	0	0	517	
3	0	0	0	0	511	
4	0	0	0	0	506	
5	0	0	0	0	507	
6	0	0	0	0	510	
7	0	0	0	0	512	
8	0	0	0	0	514	
9	0	0	0	0	516	
10	0	0	0	0	515	
11	0	0	0	0	512	
12	0	0	0	0	510	
13	0	0	0	0	511	
14	0	0	0	0	510	
15	0	0	0	0	510	
0	0	0	0	0	507	
1	0	0	0	0	504	
2	0	0	0	0	504	
3	0	0	0	0	509	
4	0	0	0	0	509	
5	0	0	0	0	505	
6	0	0	0	0	505	
7	0	0	0	0	508	
8	0	0	0	0	510	
9	0	0	0	0	512	
10	0	0	0	0	512	
11	0	0	0	0	512	
12	0	0	0	0	514	
13	0	0	0	0	514	
14	0	0	0	0	515	
15	0	0	0	0	514	
0	0	0	0	0	514	
1	0	0	0	0	515	
2	0	0	0	0	515	
3	0	0	0	0	514	
4	0	0	0	0	512	
5	0	0	0	0	512	
6	0	0	0	0	510	
7	0	0	0	0	508	
8	0	0	0	0	508	
9	0	0	0	0	509	
10	0	0	0	0	509	
11	0	0	0	0	509	
12	0	0	0	0	508	
13	0	0	0	0	508	
14	0	0	0	0	508	
15	0	0	0	0	508	
0	0	0	0	0	509	
1	0	0	0	0	508	
2	0	0	0	0	510	
3	0	0	0	0	512	
4	0	0	0	0	514	
5	0	0	0	0	514	
6	0	0	0	0	512	
7	0	0	0	0	508	
8	0	0	0	0	503	
9	0	0	0	0	500	
10	0	0	0	0	500	
11	0	0	0	0	502	
12	0	0	0	0	506	
13	0	0	0	0	505	
14	0	0	0	0	504	
15	0	0	0	0	504	
0	0	0	0	0	505	
1	0	0	0	0	508	
2	0	0	0	0	509	
3	0	0	0	0	507	
4	0	0	0	0	505	
5	0	0	0	0	504	
6	0	0	0	0	502	
7	0	0	0	0	503	
8	0	0	0	0	507	
9	0	0	0	0	511	
10	0	0	0	0	514	
11	0	0	0	0	513	
12	0	0	0	0	508	
13	0	0	0	0	506	
14	0	0	0	0	505	
15	0	0	0	0	505	
0	0	0	0	0	504	
1	0	0	0	0	502	
2	0	0	0	0	502	
3	0	0	0	0	502	
4	0	0	0	0	502	
5	0	0	0	0	501	
6	0	0	0	0	499	
7	0	0	0	0	500	
8	0	0	0	0	501	
9	0	0	0	0	502	
10	0	0	0	0	502	
11	0	0	0	0	502	
12	0	0	0	0	501	
13	0	0	0	0	501	
14	0	0	0	0	501	
15	0	0	0	0	501	
0	0	0	0	0	503	
1	0	0	0	0	505	
2	0	0	0	0	506	
3	0	0	0	0	505	
4	0	0	0	0	504	
5	0	0	0	0	504	
6	0	0	0	0	504	
7	0	0	0	0	505	
8	0	0	0	0	504	
9	0	0	0	0	504	
10	0	0	0	0	507	
11	0	0	0	0	508	
12	0	0	0	0	507	
13	0	0	0	0	506	
14	0	0	0	0	504	
15	0	0	0	0	500	
0	0	0	0	0	500	
1	0	0	0	0	503	
2	0	0	0	0	503	
3	0	0	0	0	502	
4	0	0	0	0	503	
5	0	0	0	0	503	
6	0	0	0	0	505	
7	0	0	0	0	507	
8	0	0	0	0	507	
9	0	0	0	0	507	
10	0	0	0	0	506	
11	0	0	0	0	504	
12	0	0	0	0	501	
13	0	0	0	0	501	
14	0	0	0	0	504	
15	0	0	0	0	505	
0	0	0	0	0	505	
1	0	0	0	0	504	
2	0	0	0	0	502	
3	0	0	0	0	503	
4	0	0	0	0	503	
5	0	0	0	0	504	
6	0	0	0	0	505	
7	0	0	0	0	505	
8	0	0	0	0	505	
9	0	0	0	0	505	
10	0	0	0	0	506	
11	0	0	0	0	504	
12	0	0	0	0	504	
13	0	0	0	0	504	
14	0	0	0	0	503	
15	0	0	0	0	504	
0	0	0	0	0	504	
1	0	0	0	0	503	
2	0	0	0	0	502	
3	0	0	0	0	502	
4	0	0	0	0	500	
5	0	0	0	0	499	
6	0	0	0	0	497	
7	0	0	0	0	496	
8	0	0	0	0	495	
9	0	0	0	0	494	
10	0	0	0	0	496	
11	0	0	0	0	498	
12	0	0	0	0	498	
13	0	0	0	0	499	
14	0	0	0	0	499	
15	0	0	0	0	500	
0	0	0	0	0	501	
1	0	0	0	0	501	
2	0	0	0	0	501	
3	0	0	0	0	501	
4	0	0	0	0	501	
5	0	0	0	0	502	
6	0	0	0	0	501	
7	0	0	0	0	499	
8	0	0	0	0	498	
9	0	0	0	0	500	
10	0	0	0	0	505	
11	0	0	0	0	511	
12	0	0	0	0	511	
13	0	0	0	0	513	
14	0	0	0	0	514	
15	0	0	0	0	513	
0	0	0	0	0	510	
1	0	0	0	0	508	
2	0	0	0	0	509	
3	0	0	0	0	507	
4	0	0	0	0	504	
5	0	0	0	0	500	
6	0	0	0	0	497	
7	0	0	0	0	494	
8	0	0	0	0	493	
9	0	0	0	0	493	
10	0	0	0	0	492	
11	0	0	0	0	491	
12	0	0	0	0	490	
13	0	0	0	0	488	
14	0	0	0	0	488	
15	0	0	0	0	489	
0	0	0	0	0	489	
1	0	0	0	0	489	
2	0	0	0	0	489	
3	0	0	0	0	489	
4	0	0	0	0	487	
5	0	0	0	0	487	
6	0	0	0	0	488	
7	0	0	0	0	489	
8	0	0	0	0	489	
9	0	0	0	0	488	
10	0	0	0	0	486	
11	0	0	0	0	485	
12	0	0	0	0	488	
13	0	0	0	0	487	
14	0	0	0	0	484	
15	0	0	0	0	481	
0	0	0	0	0	481	
1	0	0	0	0	481	
2	0	0	0	0	480	
3	0	0	0	0	480	
4	0	0	0	0	480	
5	0	0	0	0	479	
6	0	0	0	0	477	
7	0	0	0	0	474	
8	0	0	0	0	472	
9	0	0	0	0	472	
10	0	0	0	0	471	
11	0	0	0	0	471	
12	0	0	0	0	473	
13	0	0	0	0	475	
14	0	0	0	0	478	
15	0	0	0	0	481	
0	0	0	0	0	483	
1	0	0	0	0	487	
2	0	0	0	0	489	
3	0	0	0	0	490	
4	0	0	0	0	491	
5	0	0	0	0	490	
6	0	0	0	0	492	
7	0	0	0	0	492	
8	0	0	0	0	492	
9	0	0	0	0	490	
10	0	0	0	0	488	
11	0	0	0	0	487	
12	0	0	0	0	489	
13	0	0	0	0	492	
14	0	0	0	0	496	
15	0	0	0	0	499	
0	0	0	0	0	499	
1	0	0	0	0	499	
2	0	0	0	0	502	
3	0	0	0	0	505	
4	0	0	0	0	508	
5	0	0	0	0	510	
6	0	0	0	0	512	
7	0	0	0	0	513	
8	0	0	0	0	513	
9	0	0	0	0	512	
10	0	0	0	0	513	
11	0	0	0	0	513	
12	0	0	0	0	513	
13	0	0	0	0	513	
14	0	0	0	0	515	
15	0	0	0	0	515	
0	0	0	0	0	513	
1	0	0	0	0	513	
2	0	0	0	0	512	
3	0	0	0	0	512	
4	0	0	0	0	512	
5	0	0	0	0	512	
6	0	0	0	0	513	
7	0	0	0	0	514	
8	0	0	0	0	515	
9	0	0	0	0	517	
10	0	0	0	0	517	
11	0	0	0	0	516	
12	0	0	0	0	514	
13	0	0	0	0	514	
14	0	0	0	0	514	
15	0	0	0	0	515	
0	0	0	0	0	515	
1	0	0	0	0	515	
2	0	0	0	0	517	
3	0	0	0	0	521	
4	0	0	0	0	524	
5	0	0	0	0	527	
6	0	0	0	0	527	
7	0	0	0	0	527	
8	0	0	0	0	523	
9	0	0	0	0	518	
10	0	0	0	0	513	
11	0	0	0	0	509	
12	0	0	0	0	505	
13	0	0	0	0	503	
14	0	0	0	0	499	
15	0	0	0	0	493	
0	0	0	0	0	487	
1	0	0	0	0	483	
2	0	0	0	0	477	
3	0	0	0	0	470	
4	0	0	0	0	463	
5	0	0	0	0	457	
6	0	0	0	0	452	
7	0	0	0	0	445	
8	0	0	0	0	437	
9	0	0	0	0	428	
10	0	0	0	0	418	
11	0	0	0	0	409	
12	0	0	0	0	399	
13	0	0	0	0	391	
14	0	0	0	0	384	
15	0	0	0	0	377	
0	0	0	0	0	368	
1	0	0	0	0	359	
2	0	0	0	0	351	
3	0	0	0	0	344	
4	0	0	0	0	333	
5	0	0	0	0	323	
6	0	0	0	0	312	
7	0	0	0	0	302	
8	0	0	0	0	296	
9	0	0	0	0	291	
10	0	0	0	0	290	
11	0	0	0	0	291	
12	0	0	0	0	291	
13	0	0	0	0	294	
14	0	0	0	0	303	
15	0	0	0	0	317	
0	0	0	0	0	331	
1	0	0	0	0	348	
2	0	0	0	0	371	
3	0	0	0	0	398	
4	0	0	0	0	424	
5	0	0	0	0	451	
6	0	0	0	0	478	
7	0	0	0	0	507	
8	0	0	0	0	537	
9	0	0	0	0	570	
10	0	0	0	0	601	
11	0	0	0	0	632	
12	0	0	0	0	667	
13	0	0	0	0	699	
14	0	0	0	0	728	
15	0	0	0	0	753	
0	0	0	0	0	773	
1	0	0	0	0	792	
2	0	0	0	0	802	
3	0	0	0	0	809	
4	0	0	0	0	816	
5	0	0	0	0	819	
6	0	0	0	0	821	
7	0	0	0	0	818	
8	0	0	0	0	814	
9	0	0	0	0	809	
10	0	0	0	0	801	
11	0	0	0	0	793	
12	0	0	0	0	783	
13	0	0	0	0	774	
14	0	0	0	0	765	
15	0	0	0	0	755	
0	0	0	0	0	746	
1	0	0	0	0	737	
2	0	0	0	0	730	
3	0	0	0	0	724	
4	0	0	0	0	717	
5	0	0	0	0	710	
6	0	0	0	0	702	
7	0	0	0	0	693	
8	0	0	0	0	682	
9	0	0	0	0	671	
10	0	0	0	0	660	
11	0	0	0	0	648	
12	0	0	0	0	636	
13	0	0	0	0	624	
14	0	0	0	0	612	
15	0	0	0	0	600	
0	0	0	0	0	588	
1	0	0	0	0	577	
2	0	0	0	0	569	
3	0	0	0	0	563	
4	0	0	0	0	558	
5	0	0	0	0	551	
6	0	0	0	0	544	
7	0	0	0	0	537	
8	0	0	0	0	531	
9	0	0	0	0	524	
10	0	0	0	0	517	
11	0	0	0	0	512	
12	0	0	0	0	507	
13	0	0	0	0	500	
14	0	0	0	0	493	
15	0	0	0	0	487	
0	0	0	0	0	483	
1	0	0	0	0	477	
2	0	0	0	0	470	
3	0	0	0	0	464	
4	0	0	0	0	462	
5	0	0	0	0	460	
6	0	0	0	0	458	
7	0	0	0	0	455	
8	0	0	0	0	454	
9	0	0	0	0	453	
10	0	0	0	0	453	
11	0	0	0	0	451	
12	0	0	0	0	449	
13	0	0	0	0	450	
14	0	0	0	0	449	
15	0	0	0	0	449	
0	0	0	0	0	449	
1	0	0	0	0	448	
2	0	0	0	0	446	
3	0	0	0	0	444	
4	0	0	0	0	444	
5	0	0	0	0	442	
6	0	0	0	0	442	
7	0	0	0	0	446	
8	0	0	0	0	447	
9	0	0	0	0	447	
10	0	0	0	0	446	
11	0	0	0	0	446	
12	0	0	0	0	447	
13	0	0	0	0	447	
14	0	0	0	0	444	
15	0	0	0	0	443	
0	0	0	0	0	443	
1	0	0	0	0	444	
2	0	0	0	0	445	
3	0	0	0	0	446	
4	0	0	0	0	445	
5	0	0	0	0	444	
6	0	0	0	0	443	
7	0	0	0	0	441	
8	0	0	0	0	444	
9	0	0	0	0	445	
10	0	0	0	0	446	
11	0	0	0	0	446	
12	0	0	0	0	446	
13	0	0	0	0	444	
14	0	0	0	0	443	
15	0	0	0	0	442	
0	0	0	0	0	440	
1	0	0	0	0	440	
2	0	0	0	0	439	
3	0	0	0	0	438	
4	0	0	0	0	438	
5	0	0	0	0	438	
6	0	0	0	0	437	
7	0	0	0	0	437	
8	0	0	0	0	436	
9	0	0	0	0	436	
10	0	0	0	0	438	
11	0	0	0	0	441	
12	0	0	0	0	443	
13	0	0	0	0	442	
14	0	0	0	0	440	
15	0	0	0	0	436	
0	0	0	0	0	435	
1	0	0	0	0	436	
2	0	0	0	0	437	
3	0	0	0	0	437	
4	0	0	0	0	436	
5	0	0	0	0	436	
6	0	0	0	0	436	
7	0	0	0	0	436	
8	0	0	0	0	436	
9	0	0	0	0	435	
10	0	0	0	0	436	
11	0	0	0	0	436	
12	0	0	0	0	437	
13	0	0	0	0	437	
14	0	0	0	0	437	
15	0	0	0	0	437	
0	0	0	0	0	437	
1	0	0	0	0	438	
2	0	0	0	0	439	
3	0	0	0	0	440	
4	0	0	0	0	440	
5	0	0	0	0	440	
6	0	0	0	0	438	
7	0	0	0	0	435	
8	0	0	0	0	434	
9	0	0	0	0	432	
10	0	0	0	0	430	
11	0	0	0	0	431	
12	0	0	0	0	433	
13	0	0	0	0	433	
14	0	0	0	0	432	
15	0	0	0	0	430	
0	0	0	0	0	429	
1	0	0	0	0	428	
2	0	0	0	0	423	
3	0	0	0	0	421	
4	0	0	0	0	422	
5	0	0	0	0	423	
6	0	0	0	0	421	
7	0	0	0	0	419	
8	0	0	0	0	416	
9	0	0	0	0	416	
10	0	0	0	0	418	
11	0	0	0	0	418	
12	0	0	0	0	417	
13	0	0	0	0	416	
14	0	0	0	0	415	
15	0	0	0	0	412	
0	0	0	0	0	411	
1	0	0	0	0	409	
2	0	0	0	0	407	
3	0	0	0	0	406	
4	0	0	0	0	406	
5	0	0	0	0	407	
6	0	0	0	0	407	
7	0	0	0	0	406	
8	0	0	0	0	404	
9	0	0	0	0	403	
10	0	0	0	0	404	
11	0	0	0	0	404	
12	0	0	0	0	403	
13	0	0	0	0	402	
14	0	0	0	0	402	
15	0	0	0	0	401	
0	0	0	0	0	401	
1	0	0	0	0	399	
2	0	0	0	0	396	
3	0	0	0	0	394	
4	0	0	0	0	394	
5	0	0	0	0	394	
6	0	0	0	0	396	
7	0	0	0	0	395	
8	0	0	0	0	395	
9	0	0	0	0	396	
10	0	0	0	0	398	
11	0	0	0	0	398	
12	0	0	0	0	396	
13	0	0	0	0	395	
14	0	0	0	0	397	
15	0	0	0	0	399	
0	0	0	0	0	400	
1	0	0	0	0	401	
2	0	0	0	0	403	
3	0	0	0	0	404	
4	0	0	0	0	406	
5	0	0	0	0	406	
6	0	0	0	0	406	
7	0	0	0	0	408	
8	0	0	0	0	411	
9	0	0	0	0	410	
10	0	0	0	0	408	
11	0	0	0	0	408	
12	0	0	0	0	406	
13	0	0	0	0	406	
14	0	0	0	0	408	
15	0	0	0	0	410	
0	0	0	0	0	412	
1	0	0	0	0	413	
2	0	0	0	0	414	
3	0	0	0	0	416	
4	0	0	0	0	418	
5	0	0	0	0	421	
6	0	0	0	0	423	
7	0	0	0	0	427	
8	0	0	0	0	431	
9	0	0	0	0	434	
10	0	0	0	0	435	
11	0	0	0	0	435	
12	0	0	0	0	437	
13	0	0	0	0	439	
14	0	0	0	0	440	
15	0	0	0	0	443	
0	0	0	0	0	446	
1	0	0	0	0	449	
2	0	0	0	0	453	
3	0	0	0	0	457	
4	0	0	0	0	462	
5	0	0	0	0	466	
6	0	0	0	0	469	
7	0	0	0	0	471	
8	0	0	0	0	474	
9	0	0	0	0	478	
10	0	0	0	0	481	
11	0	0	0	0	485	
12	0	0	0	0	489	
13	0	0	0	0	493	
14	0	0	0	0	496	
15	0	0	0	0	498	
0	0	0	0	0	501	
1	0	0	0	0	506	
2	0	0	0	0	511	
3	0	0	0	0	514	
4	0	0	0	0	518	
5	0	0	0	0	522	
6	0	0	0	0	525	
7	0	0	0	0	527	
8	0	0	0	0	530	
9	0	0	0	0	533	
10	0	0	0	0	535	
11	0	0	0	0	536	
12	0	0	0	0	538	
13	0	0	0	0	541	
14	0	0	0	0	545	
15	0	0	0	0	548	
0	0	0	0	0	551	
1	0	0	0	0	555	
2	0	0	0	0	560	
3	0	0	0	0	564	
4	0	0	0	0	568	
5	0	0	0	0	569	
6	0	0	0	0	571	
7	0	0	0	0	572	
8	0	0	0	0	572	
9	0	0	0	0	572	
10	0	0	0	0	573	
11	0	0	0	0	574	
12	0	0	0	0	575	
13	0	0	0	0	576	
14	0	0	0	0	577	
15	0	0	0	0	580	
0	0	0	0	0	582	
1	0	0	0	0	586	
2	0	0	0	0	589	
3	0	0	0	0	591	
4	0	0	0	0	594	
5	0	0	0	0	595	
6	0	0	0	0	592	
7	0	0	0	0	590	
8	0	0	0	0	590	
9	0	0	0	0	588	
10	0	0	0	0	588	
11	0	0	0	0	587	
12	0	0	0	0	589	
13	0	0	0	0	591	
14	0	0	0	0	593	
15	0	0	0	0	595	
0	0	0	0	0	594	
1	0	0	0	0	595	
2	0	0	0	0	596	
3	0	0	0	0	595	
4	0	0	0	0	595	
5	0	0	0	0	595	
6	0	0	0	0	595	
7	0	0	0	0	595	
8	0	0	0	0	595	
9	0	0	0	0	593	
10	0	0	0	0	592	
11	0	0	0	0	593	
12	0	0	0	0	593	
13	0	0	0	0	593	
14	0	0	0	0	593	
15	0	0	0	0	593	
0	0	0	0	0	591	
1	0	0	0	0	590	
2	0	0	0	0	590	
3	0	0	0	0	589	
4	0	0	0	0	592	
5	0	0	0	0	594	
6	0	0	0	0	592	
7	0	0	0	0	592	
8	0	0	0	0	592	
9	0	0	0	0	592	
10	0	0	0	0	591	
11	0	0	0	0	589	
12	0	0	0	0	585	
13	0	0	0	0	585	
14	0	0	0	0	585	
15	0	0	0	0	586	
0	0	0	0	0	585	
1	0	0	0	0	583	
2	0	0	0	0	579	
3	0	0	0	0	578	
4	0	0	0	0	578	
5	0	0	0	0	577	
6	0	0	0	0	578	
7	0	0	0	0	580	
8	0	0	0	0	579	
9	0	0	0	0	578	
10	0	0	0	0	577	
11	0	0	0	0	577	
12	0	0	0	0	577	
13	0	0	0	0	577	
14	0	0	0	0	576	
15	0	0	0	0	575	
0	0	0	0	0	573	
1	0	0	0	0	573	
2	0	0	0	0	573	
3	0	0	0	0	573	
4	0	0	0	0	572	
5	0	0	0	0	572	
6	0	0	0	0	571	
7	0	0	0	0	571	
8	0	0	0	0	571	
9	0	0	0	0	569	
10	0	0	0	0	569	
11	0	0	0	0	568	
12	0	0	0	0	566	
13	0	0	0	0	565	
14	0	0	0	0	562	
15	0	0	0	0	561	
0	0	0	0	0	560	
1	0	0	0	0	561	
2	0	0	0	0	562	
3	0	0	0	0	560	
4	0	0	0	0	560	
5	0	0	0	0	559	
6	0	0	0	0	559	
7	0	0	0	0	559	
8	0	0	0	0	560	
9	0	0	0	0	560	
10	0	0	0	0	560	
11	0	0	0	0	560	
12	0	0	0	0	559	
13	0	0	0	0	556	
14	0	0	0	0	555	
15	0	0	0	0	554	
0	0	0	0	0	554	
1	0	0	0	0	555	
2	0	0	0	0	555	
3	0	0	0	0	553	
4	0	0	0	0	551	
5	0	0	0	0	549	
6	0	0	0	0	547	
7	0	0	0	0	545	
8	0	0	0	0	544	
9	0	0	0	0	545	
10	0	0	0	0	546	
11	0	0	0	0	544	
12	0	0	0	0	543	
13	0	0	0	0	543	
14	0	0	0	0	542	
15	0	0	0	0	542	
0	0	0	0	0	541	
1	0	0	0	0	540	
2	0	0	0	0	539	
3	0	0	0	0	540	
4	0	0	0	0	540	
5	0	0	0	0	540	
6	0	0	0	0	538	
7	0	0	0	0	536	
8	0	0	0	0	536	
9	0	0	0	0	537	
10	0	0	0	0	538	
11	0	0	0	0	538	
12	0	0	0	0	538	
13	0	0	0	0	537	
14	0	0	0	0	535	
15	0	0	0	0	533	
0	0	0	0	0	532	
1	0	0	0	0	531	
2	0	0	0	0	531	
3	0	0	0	0	530	
4	0	0	0	0	531	
5	0	0	0	0	530	
6	0	0	0	0	530	
7	0	0	0	0	530	
8	0	0	0	0	530	
9	0	0	0	0	531	
10	0	0	0	0	529	
11	0	0	0	0	527	
12	0	0	0	0	525	
13	0	0	0	0	526	
14	0	0	0	0	526	
15	0	0	0	0	525	
0	0	0	0	0	526	
1	0	0	0	0	529	
2	0	0	0	0	531	
3	0	0	0	0	531	
4	0	0	0	0	533	
5	0	0	0	0	534	
6	0	0	0	0	534	
7	0	0	0	0	530	
8	0	0	0	0	528	
9	0	0	0	0	527	
10	0	0	0	0	525	
11	0	0	0	0	524	
12	0	0	0	0	522	
13	0	0	0	0	520	
14	0	0	0	0	519	
15	0	0	0	0	520	
0	0	0	0	0	519	
1	0	0	0	0	519	
2	0	0	0	0	521	
3	0	0	0	0	523	
4	0	0	0	0	524	
5	0	0	0	0	524	
6	0	0	0	0	524	
7	0	0	0	0	524	
8	0	0	0	0	523	
9	0	0	0	0	521	
10	0	0	0	0	519	
11	0	0	0	0	519	
12	0	0	0	0	518	
13	0	0	0	0	518	
14	0	0	0	0	519	
15	0	0	0	0	519	
0	0	0	0	0	519	
1	0	0	0	0	520	
2	0	0	0	0	521	
3	0	0	0	0	523	
4	0	0	0	0	522	
5	0	0	0	0	521	
6	0	0	0	0	521	
7	0	0	0	0	522	
8	0	0	0	0	524	
9	0	0	0	0	524	
10	0	0	0	0	524	
11	0	0	0	0	525	
12	0	0	0	0	524	
13	0	0	0	0	523	
14	0	0	0	0	520	
15	0	0	0	0	519	
0	0	0	0	0	519	
1	0	0	0	0	519	
2	0	0	0	0	519	
3	0	0	0	0	518	
4	0	0	0	0	516	
5	0	0	0	0	517	
6	0	0	0	0	517	
7	0	0	0	0	517	
8	0	0	0	0	518	
9	0	0	0	0	521	
10	0	0	0	0	521	
11	0	0	0	0	519	
12	0	0	0	0	518	
13	0	0	0	0	521	
14	0	0	0	0	516	
15	0	0	0	0	512	
0	0	0	0	0	509	
1	0	0	0	0	509	
2	0	0	0	0	509	
3	0	0	0	0	509	
4	0	0	0	0	511	
5	0	0	0	0	512	
6	0	0	0	0	513	
7	0	0	0	0	514	
8	0	0	0	0	515	
9	0	0	0	0	515	
10	0	0	0	0	514	
11	0	0	0	0	514	
12	0	0	0	0	515	
13	0	0	0	0	516	
14	0	0	0	0	518	
15	0	0	0	0	518	
0	0	0	0	0	518	
1	0	0	0	0	518	
2	0	0	0	0	518	
3	0	0	0	0	520	
4	0	0	0	0	519	
5	0	0	0	0	517	
6	0	0	0	0	515	
7	0	0	0	0	513	
8	0	0	0	0	512	
9	0	0	0	0	516	
10	0	0	0	0	519	
11	0	0	0	0	513	
12	0	0	0	0	511	
13	0	0	0	0	511	
14	0	0	0	0	513	
15	0	0	0	0	515	
0	0	0	0	0	516	
1	0	0	0	0	514	
2	0	0	0	0	513	
3	0	0	0	0	515	
4	0	0	0	0	513	
5	0	0	0	0	512	
6	0	0	0	0	512	
7	0	0	0	0	513	
8	0	0	0	0	513	
9	0	0	0	0	513	
10	0	0	0	0	513	
11	0	0	0	0	513	
12	0	0	0	0	515	
13	0	0	0	0	517	
14	0	0	0	0	518	
15	0	0	0	0	516	
0	0	0	0	0	515	
1	0	0	0	0	515	
2	0	0	0	0	515	
3	0	0	0	0	513	
4	0	0	0	0	513	
5	0	0	0	0	512	
6	0	0	0	0	513	
7	0	0	0	0	515	
8	0	0	0	0	516	
9	0	0	0	0	516	
10	0	0	0	0	512	
11	0	0	0	0	506	
12	0	0	0	0	505	
13	0	0	0	0	508	
14	0	0	0	0	510	
15	0	0	0	0	509	
0	0	0	0	0	507	
1	0	0	0	0	504	
2	0	0	0	0	504	
3	0	0	0	0	505	
4	0	0	0	0	505	
5	0	0	0	0	504	
6	0	0	0	0	504	
7	0	0	0	0	504	
8	0	0	0	0	506	
9	0	0	0	0	508	
10	0	0	0	0	510	
11	0	0	0	0	510	
12	0	0	0	0	511	
13	0	0	0	0	511	
14	0	0	0	0	511	
15	0	0	0	0	508	
0	0	0	0	0	508	
1	0	0	0	0	511	
2	0	0	0	0	511	
3	0	0	0	0	511	
4	0	0	0	0	508	
5	0	0	0	0	505	
6	0	0	0	0	504	
7	0	0	0	0	505	
8	0	0	0	0	508	
9	0	0	0	0	511	
10	0	0	0	0	512	
11	0	0	0	0	511	
12	0	0	0	0	509	
13	0	0	0	0	510	
14	0	0	0	0	510	
15	0	0	0	0	510	
0	0	0	0	0	507	
1	0	0	0	0	503	
2	0	0	0	0	502	
3	0	0	0	0	502	
4	0	0	0	0	502	
5	0	0	0	0	503	
6	0	0	0	0	504	
7	0	0	0	0	503	
8	0	0	0	0	501	
9	0	0	0	0	501	
10	0	0	0	0	503	
11	0	0	0	0	504	
12	0	0	0	0	507	
13	0	0	0	0	508	
14	0	0	0	0	509	
15	0	0	0	0	508	
0	0	0	0	0	507	
1	0	0	0	0	505	
2	0	0	0	0	505	
3	0	0	0	0	505	
4	0	0	0	0	505	
5	0	0	0	0	504	
6	0	0	0	0	505	
7	0	0	0	0	506	
8	0	0	0	0	506	
9	0	0	0	0	506	
10	0	0	0	0	505	
11	0	0	0	0	505	
12	0	0	0	0	504	
13	0	0	0	0	505	
14	0	0	0	0	507	
15	0	0	0	0	508	
0	0	0	0	0	508	
1	0	0	0	0	507	
2	0	0	0	0	508	
3	0	0	0	0	508	
4	0	0	0	0	507	
5	0	0	0	0	506	
6	0	0	0	0	503	
7	0	0	0	0	503	
8	0	0	0	0	504	
9	0	0	0	0	503	
10	0	0	0	0	502	
11	0	0	0	0	499	
12	0	0	0	0	497	
13	0	0	0	0	496	
14	0	0	0	0	497	
15	0	0	0	0	497	
0	0	0	0	0	498	
1	0	0	0	0	498	
2	0	0	0	0	497	
3	0	0	0	0	497	
4	0	0	0	0	495	
5	0	0	0	0	493	
6	0	0	0	0	491	
7	0	0	0	0	487	
8	0	0	0	0	486	
9	0	0	0	0	486	
10	0	0	0	0	483	
11	0	0	0	0	482	
12	0	0	0	0	482	
13	0	0	0	0	481	
14	0	0	0	0	481	
15	0	0	0	0	483	
0	0	0	0	0	484	
1	0	0	0	0	486	
2	0	0	0	0	485	
3	0	0	0	0	486	
4	0	0	0	0	489	
5	0	0	0	0	488	
6	0	0	0	0	488	
7	0	0	0	0	488	
8	0	0	0	0	485	
9	0	0	0	0	480	
10	0	0	0	0	478	
11	0	0	0	0	479	
12	0	0	0	0	479	
13	0	0	0	0	480	
14	0	0	0	0	482	
15	0	0	0	0	483	
0	0	0	0	0	487	
1	0	0	0	0	486	
2	0	0	0	0	487	
3	0	0	0	0	487	
4	0	0	0	0	487	
5	0	0	0	0	488	
6	0	0	0	0	488	
7	0	0	0	0	488	
8	0	0	0	0	487	
9	0	0	0	0	489	
10	0	0	0	0	491	
11	0	0	0	0	496	
12	0	0	0	0	495	
13	0	0	0	0	494	
14	0	0	0	0	494	
15	0	0	0	0	496	
0	0	0	0	0	498	
1	0	0	0	0	499	
2	0	0	0	0	499	
3	0	0	0	0	500	
4	0	0	0	0	503	
5	0	0	0	0	504	
6	0	0	0	0	505	
7	0	0	0	0	506	
8	0	0	0	0	509	
9	0	0	0	0	513	
10	0	0	0	0	516	
11	0	0	0	0	517	
12	0	0	0	0	519	
13	0	0	0	0	518	
14	0	0	0	0	517	
15	0	0	0	0	515	
0	0	0	0	0	516	
1	0	0	0	0	515	
2	0	0	0	0	517	
3	0	0	0	0	516	
4	0	0	0	0	516	
5	0	0	0	0	515	
6	0	0	0	0	514	
7	0	0	0	0	515	
8	0	0	0	0	515	
9	0	0	0	0	515	
10	0	0	0	0	515	
11	0	0	0	0	514	
12	0	0	0	0	512	
13	0	0	0	0	511	
14	0	0	0	0	510	
15	0	0	0	0	508	
0	0	0	0	0	505	
1	0	0	0	0	502	
2	0	0	0	0	504	
3	0	0	0	0	508	
4	0	0	0	0	509	
5	0	0	0	0	511	
6	0	0	0	0	512	
7	0	0	0	0	513	
8	0	0	0	0	513	
9	0	0	0	0	513	
10	0	0	0	0	512	
11	0	0	0	0	511	
12	0	0	0	0	508	
13	0	0	0	0	502	
14	0	0	0	0	501	
15	0	0	0	0	505	
0	0	0	0	0	502	
1	0	0	0	0	497	
2	0	0	0	0	496	
3	0	0	0	0	493	
4	0	0	0	0	489	
5	0	0	0	0	484	
6	0	0	0	0	479	
7	0	0	0	0	473	
8	0	0	0	0	466	
9	0	0	0	0	462	
10	0	0	0	0	458	
11	0	0	0	0	453	
12	0	0	0	0	446	
13	0	0	0	0	439	
14	0	0	0	0	431	
15	0	0	0	0	422	
0	0	0	0	0	414	
1	0	0	0	0	408	
2	0	0	0	0	401	
3	0	0	0	0	396	
4	0	0	0	0	389	
5	0	0	0	0	381	
6	0	0	0	0	372	
7	0	0	0	0	362	
8	0	0	0	0	351	
9	0	0	0	0	339	
10	0	0	0	0	330	
11	0	0	0	0	322	
12	0	0	0	0	318	
13	0	0	0	0	318	
14	0	0	0	0	321	
15	0	0	0	0	325	
0	0	0	0	0	328	
1	0	0	0	0	329	
2	0	0	0	0	332	
3	0	0	0	0	342	
4	0	0	0	0	358	
5	0	0	0	0	375	
6	0	0	0	0	398	
7	0	0	0	0	422	
8	0	0	0	0	446	
9	0	0	0	0	469	
10	0	0	0	0	495	
11	0	0	0	0	523	
12	0	0	0	0	550	
13	0	0	0	0	577	
14	0	0	0	0	604	
15	0	0	0	0	632	
0	0	0	0	0	661	
1	0	0	0	0	689	
2	0	0	0	0	713	
3	0	0	0	0	729	
4	0	0	0	0	743	
5	0	0	0	0	755	
6	0	0	0	0	765	
7	0	0	0	0	776	
8	0	0	0	0	788	
9	0	0	0	0	795	
10	0	0	0	0	792	
11	0	0	0	0	783	
12	0	0	0	0	778	
13	0	0	0	0	774	
14	0	0	0	0	771	
15	0	0	0	0	768	
0	0	0	0	0	761	
1	0	0	0	0	753	
2	0	0	0	0	749	
3	0	0	0	0	745	
4	0	0	0	0	740	
5	0	0	0	0	734	
6	0	0	0	0	728	
7	0	0	0	0	717	
8	0	0	0	0	706	
9	0	0	0	0	698	
10	0	0	0	0	690	
11	0	0	0	0	680	
12	0	0	0	0	670	
13	0	0	0	0	661	
14	0	0	0	0	655	
15	0	0	0	0	648	
0	0	0	0	0	641	
1	0	0	0	0	633	
2	0	0	0	0	625	
3	0	0	0	0	615	
4	0	0	0	0	606	
5	0	0	0	0	597	
6	0	0	0	0	587	
7	0	0	0	0	577	
8	0	0	0	0	569	
9	0	0	0	0	561	
10	0	0	0	0	554	
11	0	0	0	0	547	
12	0	0	0	0	540	
13	0	0	0	0	532	
14	0	0	0	0	524	
15	0	0	0	0	518	
0	0	0	0	0	510	
1	0	0	0	0	503	
2	0	0	0	0	497	
3	0	0	0	0	492	
4	0	0	0	0	488	
5	0	0	0	0	484	
6	0	0	0	0	480	
7	0	0	0	0	476	
8	0	0	0	0	473	
9	0	0	0	0	468	
10	0	0	0	0	464	
11	0	0	0	0	462	
12	0	0	0	0	457	
13	0	0	0	0	454	
14	0	0	0	0	451	
15	0	0	0	0	450	
0	0	0	0	0	448	
1	0	0	0	0	448	
2	0	0	0	0	448	
3	0	0	0	0	445	
4	0	0	0	0	444	
5	0	0	0	0	443	
6	0	0	0	0	439	
7	0	0	0	0	435	
8	0	0	0	0	432	
9	0	0	0	0	431	
10	0	0	0	0	433	
11	0	0	0	0	434	
12	0	0	0	0	430	
13	0	0	0	0	424	
14	0	0	0	0	423	
15	0	0	0	0	423	
0	0	0	0	0	425	
1	0	0	0	0	426	
2	0	0	0	0	428	
3	0	0	0	0	430	
4	0	0	0	0	431	
5	0	0	0	0	432	
6	0	0	0	0	433	
7	0	0	0	0	435	
8	0	0	0	0	435	
9	0	0	0	0	435	
10	0	0	0	0	436	
11	0	0	0	0	437	
12	0	0	0	0	438	
13	0	0	0	0	436	
14	0	0	0	0	432	
15	0	0	0	0	427	
0	0	0	0	0	423	
1	0	0	0	0	420	
2	0	0	0	0	422	
3	0	0	0	0	423	
4	0	0	0	0	423	
5	0	0	0	0	423	
6	0	0	0	0	425	
7	0	0	0	0	428	
8	0	0	0	0	428	
9	0	0	0	0	428	
10	0	0	0	0	432	
11	0	0	0	0	432	
12	0	0	0	0	433	
13	0	0	0	0	435	
14	0	0	0	0	437	
15	0	0	0	0	433	
0	0	0	0	0	430	
1	0	0	0	0	429	
2	0	0	0	0	428	
3	0	0	0	0	428	
4	0	0	0	0	428	
5	0	0	0	0	429	
6	0	0	0	0	430	
7	0	0	0	0	432	
8	0	0	0	0	435	
9	0	0	0	0	439	
10	0	0	0	0	441	
11	0	0	0	0	442	
12	0	0	0	0	444	
13	0	0	0	0	443	
14	0	0	0	0	441	
15	0	0	0	0	438	
0	0	0	0	0	433	
1	0	0	0	0	433	
2	0	0	0	0	430	
3	0	0	0	0	428	
4	0	0	0	0	425	
5	0	0	0	0	426	
6	0	0	0	0	426	
7	0	0	0	0	425	
8	0	0	0	0	424	
9	0	0	0	0	422	
10	0	0	0	0	419	
11	0	0	0	0	416	
12	0	0	0	0	417	
13	0	0	0	0	418	
14	0	0	0	0	419	
15	0	0	0	0	420	
0	0	0	0	0	422	
1	0	0	0	0	424	
2	0	0	0	0	427	
3	0	0	0	0	430	
4	0	0	0	0	430	
5	0	0	0	0	425	
6	0	0	0	0	418	
7	0	0	0	0	414	
8	0	0	0	0	412	
9	0	0	0	0	410	
10	0	0	0	0	410	
11	0	0	0	0	412	
12	0	0	0	0	415	
13	0	0	0	0	414	
14	0	0	0	0	415	
15	0	0	0	0	414	
0	0	0	0	0	413	
1	0	0	0	0	414	
2	0	0	0	0	411	
3	0	0	0	0	412	
4	0	0	0	0	413	
5	0	0	0	0	412	
6	0	0	0	0	411	
7	0	0	0	0	407	
8	0	0	0	0	403	
9	0	0	0	0	400	
10	0	0	0	0	400	
11	0	0	0	0	399	
12	0	0	0	0	398	
13	0	0	0	0	399	
14	0	0	0	0	401	
15	0	0	0	0	400	
0	0	0	0	0	401	
1	0	0	0	0	399	
2	0	0	0	0	398	
3	0	0	0	0	398	
4	0	0	0	0	396	
5	0	0	0	0	395	
6	0	0	0	0	395	
7	0	0	0	0	393	
8	0	0	0	0	392	
9	0	0	0	0	393	
10	0	0	0	0	393	
11	0	0	0	0	393	
12	0	0	0	0	391	
13	0	0	0	0	393	
14	0	0	0	0	395	
15	0	0	0	0	395	
0	0	0	0	0	393	
1	0	0	0	0	394	
2	0	0	0	0	395	
3	0	0	0	0	396	
4	0	0	0	0	400	
5	0	0	0	0	407	
6	0	0	0	0	407	
7	0	0	0	0	405	
8	0	0	0	0	405	
9	0	0	0	0	404	
10	0	0	0	0	405	
11	0	0	0	0	403	
12	0	0	0	0	400	
13	0	0	0	0	400	
14	0	0	0	0	400	
15	0	0	0	0	400	
0	0	0	0	0	401	
1	0	0	0	0	403	
2	0	0	0	0	405	
3	0	0	0	0	406	
4	0	0	0	0	408	
5	0	0	0	0	411	
6	0	0	0	0	414	
7	0	0	0	0	416	
8	0	0	0	0	419	
9	0	0	0	0	422	
10	0	0	0	0	423	
11	0	0	0	0	424	
12	0	0	0	0	422	
13	0	0	0	0	424	
14	0	0	0	0	430	
15	0	0	0	0	433	
0	0	0	0	0	435	
1	0	0	0	0	440	
2	0	0	0	0	445	
3	0	0	0	0	450	
4	0	0	0	0	457	
5	0	0	0	0	460	
6	0	0	0	0	461	
7	0	0	0	0	460	
8	0	0	0	0	461	
9	0	0	0	0	465	
10	0	0	0	0	468	
11	0	0	0	0	471	
12	0	0	0	0	474	
13	0	0	0	0	478	
14	0	0	0	0	483	
15	0	0	0	0	486	
0	0	0	0	0	489	
1	0	0	0	0	491	
2	0	0	0	0	493	
3	0	0	0	0	496	
4	0	0	0	0	499	
5	0	0	0	0	503	
6	0	0	0	0	505	
7	0	0	0	0	510	
8	0	0	0	0	515	
9	0	0	0	0	519	
10	0	0	0	0	523	
11	0	0	0	0	528	
12	0	0	0	0	534	
13	0	0	0	0	540	
14	0	0	0	0	543	
15	0	0	0	0	543	
0	0	0	0	0	544	
1	0	0	0	0	547	
2	0	0	0	0	551	
3	0	0	0	0	552	
4	0	0	0	0	554	
5	0	0	0	0	555	
6	0	0	0	0	555	
7	0	0	0	0	556	
8	0	0	0	0	557	
9	0	0	0	0	559	
10	0	0	0	0	562	
11	0	0	0	0	567	
12	0	0	0	0	573	
13	0	0	0	0	574	
14	0	0	0	0	574	
15	0	0	0	0	577	
0	0	0	0	0	579	
1	0	0	0	0	579	
2	0	0	0	0	579	
3	0	0	0	0	582	
4	0	0	0	0	586	
5	0	0	0	0	590	
6	0	0	0	0	590	
7	0	0	0	0	588	
8	0	0	0	0	585	
9	0	0	0	0	583	
10	0	0	0	0	585	
11	0	0	0	0	588	
12	0	0	0	0	589	
13	0	0	0	0	589	
14	0	0	0	0	589	
15	0	0	0	0	590	
0	0	0	0	0	591	
1	0	0	0	0	591	
2	0	0	0	0	591	
3	0	0	0	0	591	
4	0	0	0	0	591	
5	0	0	0	0	594	
6	0	0	0	0	595	
7	0	0	0	0	597	
8	0	0	0	0	599	
9	0	0	0	0	599	
10	0	0	0	0	596	
11	0	0	0	0	593	
12	0	0	0	0	591	
13	0	0	0	0	592	
14	0	0	0	0	592	
15	0	0	0	0	593	
0	0	0	0	0	594	
1	0	0	0	0	591	
2	0	0	0	0	591	
3	0	0	0	0	592	
4	0	0	0	0	591	
5	0	0	0	0	587	
6	0	0	0	0	584	
7	0	0	0	0	584	
8	0	0	0	0	582	
9	0	0	0	0	580	
10	0	0	0	0	579	
11	0	0	0	0	581	
12	0	0	0	0	582	
13	0	0	0	0	583	
14	0	0	0	0	583	
15	0	0	0	0	583	
0	0	0	0	0	585	
1	0	0	0	0	587	
2	0	0	0	0	589	
3	0	0	0	0	588	
4	0	0	0	0	585	
5	0	0	0	0	584	
6	0	0	0	0	582	
7	0	0	0	0	577	
8	0	0	0	0	577	
9	0	0	0	0	574	
10	0	0	0	0	571	
11	0	0	0	0	571	
12	0	0	0	0	572	
13	0	0	0	0	574	
14	0	0	0	0	576	
15	0	0	0	0	576	
0	0	0	0	0	576	
1	0	0	0	0	576	
2	0	0	0	0	575	
3	0	0	0	0	575	
4	0	0	0	0	575	
5	0	0	0	0	576	
6	0	0	0	0	577	
7	0	0	0	0	572	
8	0	0	0	0	570	
9	0	0	0	0	568	
10	0	0	0	0	567	
11	0	0	0	0	566	
12	0	0	0	0	568	
13	0	0	0	0	568	
14	0	0	0	0	564	
15	0	0	0	0	561	
0	0	0	0	0	561	
1	0	0	0	0	561	
2	0	0	0	0	562	
3	0	0	0	0	564	
4	0	0	0	0	565	
5	0	0	0	0	569	
6	0	0	0	0	572	
7	0	0	0	0	574	
8	0	0	0	0	573	
9	0	0	0	0	568	
10	0	0	0	0	560	
11	0	0	0	0	555	
12	0	0	0	0	551	
13	0	0	0	0	548	
14	0	0	0	0	549	
15	0	0	0	0	548	
0	0	0	0	0	548	
1	0	0	0	0	547	
2	0	0	0	0	547	
3	0	0	0	0	548	
4	0	0	0	0	547	
5	0	0	0	0	547	
6	0	0	0	0	550	
7	0	0	0	0	549	
8	0	0	0	0	550	
9	0	0	0	0	550	
10	0	0	0	0	545	
11	0	0	0	0	541	
12	0	0	0	0	540	
13	0	0	0	0	538	
14	0	0	0	0	534	
15	0	0	0	0	535	
0	0	0	0	0	536	
1	0	0	0	0	540	
2	0	0	0	0	541	
3	0	0	0	0	540	
4	0	0	0	0	539	
5	0	0	0	0	539	
6	0	0	0	0	540	
7	0	0	0	0	541	
8	0	0	0	0	541	
9	0	0	0	0	541	
10	0	0	0	0	543	
11	0	0	0	0	546	
12	0	0	0	0	546	
13	0	0	0	0	543	
14	0	0	0	0	540	
15	0	0	0	0	540	
0	0	0	0	0	542	
1	0	0	0	0	544	
2	0	0	0	0	542	
3	0	0	0	0	538	
4	0	0	0	0	534	
5	0	0	0	0	529	
6	0	0	0	0	527	
7	0	0	0	0	526	
8	0	0	0	0	526	
9	0	0	0	0	527	
10	0	0	0	0	529	
11	0	0	0	0	528	
12	0	0	0	0	526	
13	0	0	0	0	526	
14	0	0	0	0	526	
15	0	0	0	0	522	
0	0	0	0	0	517	
1	0	0	0	0	518	
2	0	0	0	0	519	
3	0	0	0	0	519	
4	0	0	0	0	519	
5	0	0	0	0	521	
6	0	0	0	0	522	
7	0	0	0	0	522	
8	0	0	0	0	520	
9	0	0	0	0	519	
10	0	0	0	0	518	
11	0	0	0	0	520	
12	0	0	0	0	520	
13	0	0	0	0	520	
14	0	0	0	0	522	
15	0	0	0	0	525	
0	0	0	0	0	525	
1	0	0	0	0	524	
2	0	0	0	0	523	
3	0	0	0	0	522	
4	0	0	0	0	521	
5	0	0	0	0	521	
6	0	0	0	0	522	
7	0	0	0	0	521	
8	0	0	0	0	519	
9	0	0	0	0	518	
10	0	0	0	0	517	
11	0	0	0	0	519	
12	0	0	0	0	523	
13	0	0	0	0	527	
14	0	0	0	0	524	
15	0	0	0	0	518	
0	0	0	0	0	514	
1	0	0	0	0	509	
2	0	0	0	0	510	
3	0	0	0	0	513	
4	0	0	0	0	515	
5	0	0	0	0	517	
6	0	0	0	0	518	
7	0	0	0	0	520	
8	0	0	0	0	522	
9	0	0	0	0	523	
10	0	0	0	0	523	
11	0	0	0	0	522	
12	0	0	0	0	521	
13	0	0	0	0	522	
14	0	0	0	0	520	
15	0	0	0	0	518	
0	0	0	0	0	516	
1	0	0	0	0	515	
2	0	0	0	0	515	
3	0	0	0	0	515	
4	0	0	0	0	517	
5	0	0	0	0	518	
6	0	0	0	0	519	
7	0	0	0	0	521	
8	0	0	0	0	522	
9	0	0	0	0	526	
10	0	0	0	0	527	
11	0	0	0	0	527	
12	0	0	0	0	525	
13	0	0	0	0	520	
14	0	0	0	0	519	
15	0	0	0	0	516	
0	0	0	0	0	513	
1	0	0	0	0	509	
2	0	0	0	0	506	
3	0	0	0	0	507	
4	0	0	0	0	507	
5	0	0	0	0	509	
6	0	0	0	0	514	
7	0	0	0	0	515	
8	0	0	0	0	516	
9	0	0	0	0	516	
10	0	0	0	0	515	
11	0	0	0	0	514	
12	0	0	0	0	512	
13	0	0	0	0	513	
14	0	0	0	0	512	
15	0	0	0	0	510	
0	0	0	0	0	509	
1	0	0	0	0	509	
2	0	0	0	0	507	
3	0	0	0	0	505	
4	0	0	0	0	506	
5	0	0	0	0	507	
6	0	0	0	0	509	
7	0	0	0	0	508	
8	0	0	0	0	507	
9	0	0	0	0	504	
10	0	0	0	0	505	
11	0	0	0	0	508	
12	0	0	0	0	508	
13	0	0	0	0	508	
14	0	0	0	0	510	
15	0	0	0	0	510	
0	0	0	0	0	510	
1	0	0	0	0	510	
2	0	0	0	0	510	
3	0	0	0	0	509	
4	0	0	0	0	508	
5	0	0	0	0	508	
6	0	0	0	0	512	
7	0	0	0	0	515	
8	0	0	0	0	514	
9	0	0	0	0	514	
10	0	0	0	0	514	
11	0	0	0	0	517	
12	0	0	0	0	518	
13	0	0	0	0	518	
14	0	0	0	0	516	
15	0	0	0	0	514	
0	0	0	0	0	514	
1	0	0	0	0	515	
2	0	0	0	0	516	
3	0	0	0	0	516	
4	0	0	0	0	516	
5	0	0	0	0	516	
6	0	0	0	0	517	
7	0	0	0	0	518	
8	0	0	0	0	516	
9	0	0	0	0	516	
10	0	0	0	0	515	
11	0	0	0	0	516	
12	0	0	0	0	515	
13	0	0	0	0	514	
14	0	0	0	0	511	
15	0	0	0	0	510	
0	0	0	0	0	511	
1	0	0	0	0	512	
2	0	0	0	0	509	
3	0	0	0	0	508	
4	0	0	0	0	508	
5	0	0	0	0	507	
6	0	0	0	0	505	
7	0	0	0	0	505	
8	0	0	0	0	503	
9	0	0	0	0	504	
10	0	0	0	0	505	
11	0	0	0	0	505	
12	0	0	0	0	508	
13	0	0	0	0	507	
14	0	0	0	0	508	
15	0	0	0	0	511	
0	0	0	0	0	507	
1	0	0	0	0	504	
2	0	0	0	0	503	
3	0	0	0	0	505	
4	0	0	0	0	505	
5	0	0	0	0	504	
6	0	0	0	0	501	
7	0	0	0	0	502	
8	0	0	0	0	504	
9	0	0	0	0	504	
10	0	0	0	0	505	
11	0	0	0	0	505	
12	0	0	0	0	503	
13	0	0	0	0	508	
14	0	0	0	0	510	
15	0	0	0	0	514	
0	0	0	0	0	523	
1	0	0	0	0	529	
2	0	0	0	0	529	
3	0	0	0	0	521	
4	0	0	0	0	515	
5	0	0	0	0	511	
6	0	0	0	0	503	
7	0	0	0	0	497	
8	0	0	0	0	492	
9	0	0	0	0	488	
10	0	0	0	0	488	
11	0	0	0	0	489	
12	0	0	0	0	489	
13	0	0	0	0	489	
14	0	0	0	0	489	
15	0	0	0	0	488	
0	0	0	0	0	487	
1	0	0	0	0	488	
2	0	0	0	0	492	
3	0	0	0	0	495	
4	0	0	0	0	496	
5	0	0	0	0	495	
6	0	0	0	0	491	
7	0	0	0	0	493	
8	0	0	0	0	494	
9	0	0	0	0	490	
10	0	0	0	0	482	
11	0	0	0	0	480	
12	0	0	0	0	480	
13	0	0	0	0	481	
14	0	0	0	0	485	
15	0	0	0	0	484	
0	0	0	0	0	482	
1	0	0	0	0	479	
2	0	0	0	0	476	
3	0	0	0	0	475	
4	0	0	0	0	476	
5	0	0	0	0	478	
6	0	0	0	0	478	
7	0	0	0	0	482	
8	0	0	0	0	487	
9	0	0	0	0	488	
10	0	0	0	0	486	
11	0	0	0	0	486	
12	0	0	0	0	487	
13	0	0	0	0	485	
14	0	0	0	0	483	
15	0	0	0	0	481	
0	0	0	0	0	481	
1	0	0	0	0	483	
2	0	0	0	0	485	
3	0	0	0	0	489	
4	0	0	0	0	492	
5	0	0	0	0	494	
6	0	0	0	0	496	
7	0	0	0	0	495	
8	0	0	0	0	493	
9	0	0	0	0	496	
10	0	0	0	0	496	
11	0	0	0	0	499	
12	0	0	0	0	497	
13	0	0	0	0	497	
14	0	0	0	0	499	
15	0	0	0	0	500	
0	0	0	0	0	503	
1	0	0	0	0	504	
2	0	0	0	0	505	
3	0	0	0	0	510	
4	0	0	0	0	512	
5	0	0	0	0	513	
6	0	0	0	0	516	
7	0	0	0	0	518	
8	0	0	0	0	519	
9	0	0	0	0	518	
10	0	0	0	0	515	
11	0	0	0	0	516	
12	0	0	0	0	517	
13	0	0	0	0	518	
14	0	0	0	0	518	
15	0	0	0	0	519	
0	0	0	0	0	519	
1	0	0	0	0	517	
2	0	0	0	0	518	
3	0	0	0	0	519	
4	0	0	0	0	519	
5	0	0	0	0	517	
6	0	0	0	0	515	
7	0	0	0	0	514	
8	0	0	0	0	515	
9	0	0	0	0	516	
10	0	0	0	0	519	
11	0	0	0	0	521	
12	0	0	0	0	524	
13	0	0	0	0	524	
14	0	0	0	0	527	
15	0	0	0	0	527	
0	0	0	0	0	526	
1	0	0	0	0	526	
2	0	0	0	0	524	
3	0	0	0	0	516	
4	0	0	0	0	513	
5	0	0	0	0	511	
6	0	0	0	0	510	
7	0	0	0	0	512	
8	0	0	0	0	511	
9	0	0	0	0	510	
10	0	0	0	0	507	
11	0	0	0	0	508	
12	0	0	0	0	508	
13	0	0	0	0	508	
14	0	0	0	0	503	
15	0	0	0	0	496	
0	0	0	0	0	491	
1	0	0	0	0	487	
2	0	0	0	0	483	
3	0	0	0	0	480	
4	0	0	0	0	479	
5	0	0	0	0	476	
6	0	0	0	0	469	
7	0	0	0	0	460	
8	0	0	0	0	451	
9	0	0	0	0	440	
10	0	0	0	0	430	
11	0	0	0	0	421	
12	0	0	0	0	415	
13	0	0	0	0	411	
14	0	0	0	0	405	
15	0	0	0	0	398	
0	0	0	0	0	393	
1	0	0	0	0	387	
2	0	0	0	0	380	
3	0	0	0	0	372	
4	0	0	0	0	366	
5	0	0	0	0	361	
6	0	0	0	0	354	
7	0	0	0	0	349	
8	0	0	0	0	345	
9	0	0	0	0	342	
10	0	0	0	0	339	
11	0	0	0	0	338	
12	0	0	0	0	348	
13	0	0	0	0	358	
14	0	0	0	0	366	
15	0	0	0	0	376	
0	0	0	0	0	391	
1	0	0	0	0	408	
2	0	0	0	0	428	
3	0	0	0	0	446	
4	0	0	0	0	467	
5	0	0	0	0	487	
6	0	0	0	0	511	
7	0	0	0	0	537	
8	0	0	0	0	563	
9	0	0	0	0	582	
10	0	0	0	0	601	
11	0	0	0	0	625	
12	0	0	0	0	647	
13	0	0	0	0	667	
14	0	0	0	0	687	
15	0	0	0	0	703	
0	0	0	0	0	719	
1	0	0	0	0	730	
2	0	0	0	0	740	
3	0	0	0	0	748	
4	0	0	0	0	753	
5	0	0	0	0	754	
6	0	0	0	0	752	
7	0	0	0	0	752	
8	0	0	0	0	748	
9	0	0	0	0	744	
10	0	0	0	0	739	
11	0	0	0	0	735	
12	0	0	0	0	729	
13	0	0	0	0	723	
14	0	0	0	0	716	
15	0	0	0	0	711	
0	0	0	0	0	705	
1	0	0	0	0	698	
2	0	0	0	0	690	
3	0	0	0	0	682	
4	0	0	0	0	673	
5	0	0	0	0	668	
6	0	0	0	0	664	
7	0	0	0	0	655	
8	0	0	0	0	644	
9	0	0	0	0	633	
10	0	0	0	0	626	
11	0	0	0	0	623	
12	0	0	0	0	619	
13	0	0	0	0	615	
14	0	0	0	0	605	
15	0	0	0	0	596	
0	0	0	0	0	586	
1	0	0	0	0	575	
2	0	0	0	0	567	
3	0	0	0	0	560	
4	0	0	0	0	547	
5	0	0	0	0	540	
6	0	0	0	0	531	
7	0	0	0	0	529	
8	0	0	0	0	526	
9	0	0	0	0	524	
10	0	0	0	0	523	
11	0	0	0	0	518	
12	0	0	0	0	508	
13	0	0	0	0	500	
14	0	0	0	0	499	
15	0	0	0	0	500	
0	0	0	0	0	496	
1	0	0	0	0	493	
2	0	0	0	0	489	
3	0	0	0	0	488	
4	0	0	0	0	487	
5	0	0	0	0	485	
6	0	0	0	0	482	
7	0	0	0	0	475	
8	0	0	0	0	465	
9	0	0	0	0	459	
10	0	0	0	0	456	
11	0	0	0	0	454	
12	0	0	0	0	453	
13	0	0	0	0	451	
14	0	0	0	0	451	
15	0	0	0	0	448	
0	0	0	0	0	447	
1	0	0	0	0	446	
2	0	0	0	0	444	
3	0	0	0	0	442	
4	0	0	0	0	440	
5	0	0	0	0	440	
6	0	0	0	0	439	
7	0	0	0	0	438	
8	0	0	0	0	435	
9	0	0	0	0	440	
10	0	0	0	0	446	
11	0	0	0	0	444	
12	0	0	0	0	447	
13	0	0	0	0	451	
14	0	0	0	0	448	
15	0	0	0	0	442	
0	0	0	0	0	438	
1	0	0	0	0	439	
2	0	0	0	0	442	
3	0	0	0	0	441	
4	0	0	0	0	439	
5	0	0	0	0	439	
6	0	0	0	0	437	
7	0	0	0	0	435	
8	0	0	0	0	435	
9	0	0	0	0	435	
10	0	0	0	0	436	
11	0	0	0	0	437	
12	0	0	0	0	435	
13	0	0	0	0	434	
14	0	0	0	0	435	
15	0	0	0	0	437	
0	0	0	0	0	440	
1	0	0	0	0	445	
2	0	0	0	0	449	
3	0	0	0	0	454	
4	0	0	0	0	455	
5	0	0	0	0	457	
6	0	0	0	0	463	
7	0	0	0	0	466	
8	0	0	0	0	461	
9	0	0	0	0	451	
10	0	0	0	0	450	
11	0	0	0	0	451	
12	0	0	0	0	450	
13	0	0	0	0	446	
14	0	0	0	0	440	
15	0	0	0	0	435	
0	0	0	0	0	434	
1	0	0	0	0	435	
2	0	0	0	0	438	
3	0	0	0	0	440	
4	0	0	0	0	443	
5	0	0	0	0	443	
6	0	0	0	0	443	
7	0	0	0	0	439	
8	0	0	0	0	438	
9	0	0	0	0	442	
10	0	0	0	0	444	
11	0	0	0	0	443	
12	0	0	0	0	444	
13	0	0	0	0	446	
14	0	0	0	0	440	
15	0	0	0	0	436	
0	0	0	0	0	432	
1	0	0	0	0	431	
2	0	0	0	0	434	
3	0	0	0	0	438	
4	0	0	0	0	442	
5	0	0	0	0	444	
6	0	0	0	0	445	
7	0	0	0	0	444	
8	0	0	0	0	443	
9	0	0	0	0	439	
10	0	0	0	0	437	
11	0	0	0	0	438	
12	0	0	0	0	439	
13	0	0	0	0	437	
14	0	0	0	0	438	
15	0	0	0	0	440	
0	0	0	0	0	440	
1	0	0	0	0	441	
2	0	0	0	0	439	
3	0	0	0	0	435	
4	0	0	0	0	432	
5	0	0	0	0	431	
6	0	0	0	0	429	
7	0	0	0	0	428	
8	0	0	0	0	428	
9	0	0	0	0	427	
10	0	0	0	0	426	
11	0	0	0	0	425	
12	0	0	0	0	423	
13	0	0	0	0	426	
14	0	0	0	0	431	
15	0	0	0	0	431	
0	0	0	0	0	430	
1	0	0	0	0	430	
2	0	0	0	0	427	
3	0	0	0	0	424	
4	0	0	0	0	422	
5	0	0	0	0	421	
6	0	0	0	0	420	
7	0	0	0	0	423	
8	0	0	0	0	422	
9	0	0	0	0	419	
10	0	0	0	0	418	
11	0	0	0	0	416	
12	0	0	0	0	415	
13	0	0	0	0	412	
14	0	0	0	0	412	
15	0	0	0	0	412	
0	0	0	0	0	407	
1	0	0	0	0	408	
2	0	0	0	0	411	
3	0	0	0	0	411	
4	0	0	0	0	408	
5	0	0	0	0	408	
6	0	0	0	0	409	
7	0	0	0	0	409	
8	0	0	0	0	408	
9	0	0	0	0	407	
10	0	0	0	0	408	
11	0	0	0	0	407	
12	0	0	0	0	406	
13	0	0	0	0	408	
14	0	0	0	0	409	
15	0	0	0	0	412	
0	0	0	0	0	412	
1	0	0	0	0	412	
2	0	0	0	0	411	
3	0	0	0	0	408	
4	0	0	0	0	405	
5	0	0	0	0	408	
6	0	0	0	0	412	
7	0	0	0	0	413	
8	0	0	0	0	415	
9	0	0	0	0	416	
10	0	0	0	0	418	
11	0	0	0	0	421	
12	0	0	0	0	421	
13	0	0	0	0	423	
14	0	0	0	0	422	
15	0	0	0	0	421	
0	0	0	0	0	421	
1	0	0	0	0	421	
2	0	0	0	0	423	
3	0	0	0	0	428	
4	0	0	0	0	434	
5	0	0	0	0	439	
6	0	0	0	0	445	
7	0	0	0	0	449	
8	0	0	0	0	448	
9	0	0	0	0	445	
10	0	0	0	0	444	
11	0	0	0	0	445	
12	0	0	0	0	450	
13	0	0	0	0	452	
14	0	0	0	0	456	
15	0	0	0	0	461	
0	0	0	0	0	465	
1	0	0	0	0	469	
2	0	0	0	0	468	
3	0	0	0	0	466	
4	0	0	0	0	467	
5	0	0	0	0	466	
6	0	0	0	0	469	
7	0	0	0	0	472	
8	0	0	0	0	477	
9	0	0	0	0	481	
10	0	0	0	0	487	
11	0	0	0	0	492	
12	0	0	0	0	494	
13	0	0	0	0	495	
14	0	0	0	0	498	
15	0	0	0	0	501	
0	0	0	0	0	503	
1	0	0	0	0	507	
2	0	0	0	0	513	
3	0	0	0	0	514	
4	0	0	0	0	516	
5	0	0	0	0	520	
6	0	0	0	0	525	
7	0	0	0	0	529	
8	0	0	0	0	534	
9	0	0	0	0	539	
10	0	0	0	0	541	
11	0	0	0	0	540	
12	0	0	0	0	543	
13	0	0	0	0	543	
14	0	0	0	0	543	
15	0	0	0	0	549	
0	0	0	0	0	550	
1	0	0	0	0	550	
2	0	0	0	0	551	
3	0	0	0	0	554	
4	0	0	0	0	554	
5	0	0	0	0	557	
6	0	0	0	0	562	
7	0	0	0	0	563	
8	0	0	0	0	565	
9	0	0	0	0	568	
10	0	0	0	0	569	
11	0	0	0	0	572	
12	0	0	0	0	573	
13	0	0	0	0	573	
14	0	0	0	0	575	
15	0	0	0	0	575	
0	0	0	0	0	577	
1	0	0	0	0	576	
2	0	0	0	0	574	
3	0	0	0	0	575	
4	0	0	0	0	578	
5	0	0	0	0	579	
6	0	0	0	0	578	
7	0	0	0	0	575	
8	0	0	0	0	576	
9	0	0	0	0	577	
10	0	0	0	0	576	
11	0	0	0	0	578	
12	0	0	0	0	583	
13	0	0	0	0	590	
14	0	0	0	0	593	
15	0	0	0	0	595	
0	0	0	0	0	598	
1	0	0	0	0	596	
2	0	0	0	0	593	
3	0	0	0	0	591	
4	0	0	0	0	594	
5	0	0	0	0	592	
6	0	0	0	0	585	
7	0	0	0	0	584	
8	0	0	0	0	580	
9	0	0	0	0	579	
10	0	0	0	0	583	
11	0	0	0	0	590	
12	0	0	0	0	587	
13	0	0	0	0	580	
14	0	0	0	0	575	
15	0	0	0	0	573	
0	0	0	0	0	568	
1	0	0	0	0	568	
2	0	0	0	0	569	
3	0	0	0	0	568	
4	0	0	0	0	565	
5	0	0	0	0	564	
6	0	0	0	0	564	
7	0	0	0	0	563	
8	0	0	0	0	564	
9	0	0	0	0	565	
10	0	0	0	0	567	
11	0	0	0	0	569	
12	0	0	0	0	568	
13	0	0	0	0	568	
14	0	0	0	0	567	
15	0	0	0	0	566	
0	0	0	0	0	568	
1	0	0	0	0	569	
2	0	0	0	0	571	
3	0	0	0	0	569	
4	0	0	0	0	572	
5	0	0	0	0	575	
6	0	0	0	0	575	
7	0	0	0	0	571	
8	0	0	0	0	568	
9	0	0	0	0	564	
10	0	0	0	0	558	
11	0	0	0	0	557	
12	0	0	0	0	559	
13	0	0	0	0	560	
14	0	0	0	0	562	
15	0	0	0	0	563	
0	0	0	0	0	567	
1	0	0	0	0	567	
2	0	0	0	0	562	
3	0	0	0	0	560	
4	0	0	0	0	560	
5	0	0	0	0	561	
6	0	0	0	0	561	
7	0	0	0	0	560	
8	0	0	0	0	558	
9	0	0	0	0	557	
10	0	0	0	0	556	
11	0	0	0	0	556	
12	0	0	0	0	556	
13	0	0	0	0	556	
14	0	0	0	0	553	
15	0	0	0	0	551	
0	0	0	0	0	551	
1	0	0	0	0	552	
2	0	0	0	0	555	
3	0	0	0	0	555	
4	0	0	0	0	552	
5	0	0	0	0	550	
6	0	0	0	0	548	
7	0	0	0	0	545	
8	0	0	0	0	546	
9	0	0	0	0	543	
10	0	0	0	0	546	
11	0	0	0	0	547	
12	0	0	0	0	544	
13	0	0	0	0	543	
14	0	0	0	0	543	
15	0	0	0	0	540	
0	0	0	0	0	543	
1	0	0	0	0	547	
2	0	0	0	0	551	
3	0	0	0	0	551	
4	0	0	0	0	554	
5	0	0	0	0	556	
6	0	0	0	0	552	
7	0	0	0	0	543	
8	0	0	0	0	541	
9	0	0	0	0	541	
10	0	0	0	0	538	
11	0	0	0	0	536	
12	0	0	0	0	537	
13	0	0	0	0	534	
14	0	0	0	0	531	
15	0	0	0	0	530	
0	0	0	0	0	534	
1	0	0	0	0	533	
2	0	0	0	0	531	
3	0	0	0	0	528	
4	0	0	0	0	527	
5	0	0	0	0	527	
6	0	0	0	0	532	
7	0	0	0	0	535	
8	0	0	0	0	536	
9	0	0	0	0	535	
10	0	0	0	0	539	
11	0	0	0	0	541	
12	0	0	0	0	536	
13	0	0	0	0	531	
14	0	0	0	0	529	
15	0	0	0	0	528	
0	0	0	0	0	528	
1	0	0	0	0	525	
2	0	0	0	0	525	
3	0	0	0	0	525	
4	0	0	0	0	524	
5	0	0	0	0	523	
6	0	0	0	0	522	
7	0	0	0	0	522	
8	0	0	0	0	521	
9	0	0	0	0	519	
10	0	0	0	0	514	
11	0	0	0	0	510	
12	0	0	0	0	512	
13	0	0	0	0	518	
14	0	0	0	0	521	
15	0	0	0	0	524	
0	0	0	0	0	523	
1	0	0	0	0	523	
2	0	0	0	0	526	
3	0	0	0	0	526	
4	0	0	0	0	527	
5	0	0	0	0	524	
6	0	0	0	0	527	
7	0	0	0	0	527	
8	0	0	0	0	520	
9	0	0	0	0	512	
10	0	0	0	0	510	
11	0	0	0	0	511	
12	0	0	0	0	510	
13	0	0	0	0	512	
14	0	0	0	0	515	
15	0	0	0	0	515	
0	0	0	0	0	516	
1	0	0	0	0	517	
2	0	0	0	0	518	
3	0	0	0	0	515	
4	0	0	0	0	514	
5	0	0	0	0	518	
6	0	0	0	0	518	
7	0	0	0	0	515	
8	0	0	0	0	515	
9	0	0	0	0	516	
10	0	0	0	0	518	
11	0	0	0	0	518	
12	0	0	0	0	518	
13	0	0	0	0	515	
14	0	0	0	0	515	
15	0	0	0	0	518	
0	0	0	0	0	516	
1	0	0	0	0	520	
2	0	0	0	0	525	
3	0	0	0	0	524	
4	0	0	0	0	519	
5	0	0	0	0	512	
6	0	0	0	0	512	
7	0	0	0	0	512	
8	0	0	0	0	512	
9	0	0	0	0	513	
10	0	0	0	0	513	
11	0	0	0	0	512	
12	0	0	0	0	511	
13	0	0	0	0	511	
14	0	0	0	0	514	
15	0	0	0	0	516	
0	0	0	0	0	518	
1	0	0	0	0	517	
2	0	0	0	0	514	
3	0	0	0	0	515	
4	0	0	0	0	517	
5	0	0	0	0	517	
6	0	0	0	0	515	
7	0	0	0	0	515	
8	0	0	0	0	515	
9	0	0	0	0	513	
10	0	0	0	0	514	
11	0	0	0	0	512	
12	0	0	0	0	510	
13	0	0	0	0	512	
14	0	0	0	0	513	
15	0	0	0	0	512	
0	0	0	0	0	512	
1	0	0	0	0	513	
2	0	0	0	0	514	
3	0	0	0	0	512	
4	0	0	0	0	510	
5	0	0	0	0	508	
6	0	0	0	0	507	
7	0	0	0	0	507	
8	0	0	0	0	508	
9	0	0	0	0	508	
10	0	0	0	0	510	
11	0	0	0	0	509	
12	0	0	0	0	513	
13	0	0	0	0	513	
14	0	0	0	0	513	
15	0	0	0	0	515	
0	0	0	0	0	516	
1	0	0	0	0	515	
2	0	0	0	0	513	
3	0	0	0	0	510	
4	0	0	0	0	508	
5	0	0	0	0	512	
6	0	0	0	0	512	
7	0	0	0	0	514	
8	0	0	0	0	512	
9	0	0	0	0	512	
10	0	0	0	0	514	
11	0	0	0	0	511	
12	0	0	0	0	512	
13	0	0	0	0	512	
14	0	0	0	0	512	
15	0	0	0	0	513	
0	0	0	0	0	512	
1	0	0	0	0	512	
2	0	0	0	0	512	
3	0	0	0	0	516	
4	0	0	0	0	515	
5	0	0	0	0	518	
6	0	0	0	0	519	
7	0	0	0	0	517	
8	0	0	0	0	516	
9	0	0	0	0	517	
10	0	0	0	0	518	
11	0	0	0	0	509	
12	0	0	0	0	506	
13	0	0	0	0	505	
14	0	0	0	0	504	
15	0	0	0	0	502	
0	0	0	0	0	499	
1	0	0	0	0	496	
2	0	0	0	0	496	
3	0	0	0	0	496	
4	0	0	0	0	500	
5	0	0	0	0	504	
6	0	0	0	0	506	
7	0	0	0	0	508	
8	0	0	0	0	509	
9	0	0	0	0	510	
10	0	0	0	0	511	
11	0	0	0	0	509	
12	0	0	0	0	507	
13	0	0	0	0	507	
14	0	0	0	0	508	
15	0	0	0	0	510	
0	0	0	0	0	507	
1	0	0	0	0	505	
2	0	0	0	0	505	
3	0	0	0	0	504	
4	0	0	0	0	504	
5	0	0	0	0	505	
6	0	0	0	0	507	
7	0	0	0	0	510	
8	0	0	0	0	510	
9	0	0	0	0	512	
10	0	0	0	0	514	
11	0	0	0	0	518	
12	0	0	0	0	516	
13	0	0	0	0	516	
14	0	0	0	0	520	
15	0	0	0	0	523	
0	0	0	0	0	513	
1	0	0	0	0	499	
2	0	0	0	0	497	
3	0	0	0	0	495	
4	0	0	0	0	496	
5	0	0	0	0	495	
6	0	0	0	0	496	
7	0	0	0	0	496	
8	0	0	0	0	495	
9	0	0	0	0	496	
10	0	0	0	0	498	
11	0	0	0	0	498	
12	0	0	0	0	499	
13	0	0	0	0	495	
14	0	0	0	0	494	
15	0	0	0	0	495	
0	0	0	0	0	492	
1	0	0	0	0	488	
2	0	0	0	0	486	
3	0	0	0	0	484	
4	0	0	0	0	485	
5	0	0	0	0	487	
6	0	0	0	0	489	
7	0	0	0	0	489	
8	0	0	0	0	492	
9	0	0	0	0	491	
10	0	0	0	0	491	
11	0	0	0	0	493	
12	0	0	0	0	492	
13	0	0	0	0	490	
14	0	0	0	0	491	
15	0	0	0	0	490	
0	0	0	0	0	485	
1	0	0	0	0	483	
2	0	0	0	0	484	
3	0	0	0	0	487	
4	0	0	0	0	488	
5	0	0	0	0	487	
6	0	0	0	0	486	
7	0	0	0	0	487	
8	0	0	0	0	492	
9	0	0	0	0	493	
10	0	0	0	0	492	
11	0	0	0	0	490	
12	0	0	0	0	491	
13	0	0	0	0	492	
14	0	0	0	0	492	
15	0	0	0	0	493	
0	0	0	0	0	495	
1	0	0	0	0	498	
2	0	0	0	0	498	
3	0	0	0	0	500	
4	0	0	0	0	503	
5	0	0	0	0	504	
6	0	0	0	0	504	
7	0	0	0	0	503	
8	0	0	0	0	504	
9	0	0	0	0	507	
10	0	0	0	0	509	
11	0	0	0	0	510	
12	0	0	0	0	511	
13	0	0	0	0	511	
14	0	0	0	0	512	
15	0	0	0	0	516	
0	0	0	0	0	518	
1	0	0	0	0	519	
2	0	0	0	0	518	
3	0	0	0	0	517	
4	0	0	0	0	518	
5	0	0	0	0	521	
6	0	0	0	0	524	
7	0	0	0	0	524	
8	0	0	0	0	521	
9	0	0	0	0	517	
10	0	0	0	0	517	
11	0	0	0	0	512	
12	0	0	0	0	510	
13	0	0	0	0	507	
14	0	0	0	0	507	
15	0	0	0	0	507	
0	0	0	0	0	510	
1	0	0	0	0	515	
2	0	0	0	0	519	
3	0	0	0	0	521	
4	0	0	0	0	517	
5	0	0	0	0	516	
6	0	0	0	0	513	
7	0	0	0	0	512	
8	0	0	0	0	512	
9	0	0	0	0	512	
10	0	0	0	0	513	
11	0	0	0	0	515	
12	0	0	0	0	512	
13	0	0	0	0	512	
14	0	0	0	0	512	
15	0	0	0	0	511	
0	0	0	0	0	511	
1	0	0	0	0	509	
2	0	0	0	0	510	
3	0	0	0	0	509	
4	0	0	0	0	507	
5	0	0	0	0	509	
6	0	0	0	0	513	
7	0	0	0	0	512	
8	0	0	0	0	512	
9	0	0	0	0	510	
10	0	0	0	0	509	
11	0	0	0	0	506	
12	0	0	0	0	501	
13	0	0	0	0	498	
14	0	0	0	0	490	
15	0	0	0	0	481	
0	0	0	0	0	475	
1	0	0	0	0	472	
2	0	0	0	0	472	
3	0	0	0	0	467	
4	0	0	0	0	456	
5	0	0	0	0	444	
6	0	0	0	0	438	
7	0	0	0	0	432	
8	0	0	0	0	427	
9	0	0	0	0	423	
10	0	0	0	0	416	
11	0	0	0	0	410	
12	0	0	0	0	403	
13	0	0	0	0	397	
14	0	0	0	0	391	
15	0	0	0	0	385	
0	0	0	0	0	378	
1	0	0	0	0	372	
2	0	0	0	0	365	
3	0	0	0	0	360	
4	0	0	0	0	356	
5	0	0	0	0	356	
6	0	0	0	0	358	
7	0	0	0	0	361	
8	0	0	0	0	366	
9	0	0	0	0	374	
10	0	0	0	0	387	
11	0	0	0	0	403	
12	0	0	0	0	420	
13	0	0	0	0	437	
14	0	0	0	0	451	
15	0	0	0	0	470	
0	0	0	0	0	493	
1	0	0	0	0	513	
2	0	0	0	0	533	
3	0	0	0	0	556	
4	0	0	0	0	578	
5	0	0	0	0	601	
6	0	0	0	0	624	
7	0	0	0	0	645	
8	0	0	0	0	666	
9	0	0	0	0	686	
10	0	0	0	0	697	
11	0	0	0	0	706	
12	0	0	0	0	714	
13	0	0	0	0	724	
14	0	0	0	0	731	
15	0	0	0	0	733	
0	0	0	0	0	735	
1	0	0	0	0	736	
2	0	0	0	0	736	
3	0	0	0	0	733	
4	0	0	0	0	729	
5	0	0	0	0	728	
6	0	0	0	0	725	
7	0	0	0	0	713	
8	0	0	0	0	699	
9	0	0	0	0	688	
10	0	0	0	0	681	
11	0	0	0	0	678	
12	0	0	0	0	674	
13	0	0	0	0	673	
14	0	0	0	0	670	
15	0	0	0	0	663	
0	0	0	0	0	655	
1	0	0	0	0	650	
2	0	0	0	0	647	
3	0	0	0	0	641	
4	0	0	0	0	630	
5	0	0	0	0	621	
6	0	0	0	0	615	
7	0	0	0	0	611	
8	0	0	0	0	606	
9	0	0	0	0	599	
10	0	0	0	0	592	
11	0	0	0	0	584	
12	0	0	0	0	573	
13	0	0	0	0	566	
14	0	0	0	0	563	
15	0	0	0	0	558	
0	0	0	0	0	555	
1	0	0	0	0	548	
2	0	0	0	0	541	
3	0	0	0	0	534	
4	0	0	0	0	526	
5	0	0	0	0	517	
6	0	0	0	0	508	
7	0	0	0	0	506	
8	0	0	0	0	502	
9	0	0	0	0	497	
10	0	0	0	0	491	
11	0	0	0	0	485	
12	0	0	0	0	482	
13	0	0	0	0	480	
14	0	0	0	0	479	
15	0	0	0	0	478	
0	0	0	0	0	477	
1	0	0	0	0	476	
2	0	0	0	0	472	
3	0	0	0	0	469	
4	0	0	0	0	465	
5	0	0	0	0	463	
6	0	0	0	0	463	
7	0	0	0	0	460	
8	0	0	0	0	459	
9	0	0	0	0	460	
10	0	0	0	0	460	
11	0	0	0	0	460	
12	0	0	0	0	458	
13	0	0	0	0	455	
14	0	0	0	0	451	
15	0	0	0	0	449	
0	0	0	0	0	450	
1	0	0	0	0	452	
2	0	0	0	0	454	
3	0	0	0	0	454	
4	0	0	0	0	454	
5	0	0	0	0	451	
6	0	0	0	0	449	
7	0	0	0	0	448	
8	0	0	0	0	447	
9	0	0	0	0	449	
10	0	0	0	0	452	
11	0	0	0	0	451	
12	0	0	0	0	447	
13	0	0	0	0	444	
14	0	0	0	0	445	
15	0	0	0	0	447	
0	0	0	0	0	449	
1	0	0	0	0	451	
2	0	0	0	0	455	
3	0	0	0	0	451	
4	0	0	0	0	450	
5	0	0	0	0	450	
6	0	0	0	0	450	
7	0	0	0	0	452	
8	0	0	0	0	456	
9	0	0	0	0	458	
10	0	0	0	0	460	
11	0	0	0	0	458	
12	0	0	0	0	454	
13	0	0	0	0	453	
14	0	0	0	0	454	
15	0	0	0	0	455	
0	0	0	0	0	455	
1	0	0	0	0	454	
2	0	0	0	0	454	
3	0	0	0	0	454	
4	0	0	0	0	454	
5	0	0	0	0	451	
6	0	0	0	0	449	
7	0	0	0	0	447	
8	0	0	0	0	447	
9	0	0	0	0	448	
10	0	0	0	0	446	
11	0	0	0	0	443	
12	0	0	0	0	442	
13	0	0	0	0	442	
14	0	0	0	0	444	
15	0	0	0	0	444	
0	0	0	0	0	444	
1	0	0	0	0	444	
2	0	0	0	0	445	
3	0	0	0	0	445	
4	0	0	0	0	447	
5	0	0	0	0	449	
6	0	0	0	0	449	
7	0	0	0	0	450	
8	0	0	0	0	451	
9	0	0	0	0	449	
10	0	0	0	0	447	
11	0	0	0	0	449	
12	0	0	0	0	448	
13	0	0	0	0	448	
14	0	0	0	0	451	
15	0	0	0	0	450	
0	0	0	0	0	448	
1	0	0	0	0	445	
2	0	0	0	0	445	
3	0	0	0	0	447	
4	0	0	0	0	447	
5	0	0	0	0	445	
6	0	0	0	0	444	
7	0	0	0	0	445	
8	0	0	0	0	444	
9	0	0	0	0	444	
10	0	0	0	0	444	
11	0	0	0	0	447	
12	0	0	0	0	451	
13	0	0	0	0	454	
14	0	0	0	0	456	
15	0	0	0	0	450	
0	0	0	0	0	446	
1	0	0	0	0	441	
2	0	0	0	0	437	
3	0	0	0	0	434	
4	0	0	0	0	432	
5	0	0	0	0	431	
6	0	0	0	0	430	
7	0	0	0	0	428	
8	0	0	0	0	429	
9	0	0	0	0	430	
10	0	0	0	0	432	
11	0	0	0	0	431	
12	0	0	0	0	431	
13	0	0	0	0	437	
14	0	0	0	0	433	
15	0	0	0	0	430	
0	0	0	0	0	430	
1	0	0	0	0	428	
2	0	0	0	0	426	
3	0	0	0	0	427	
4	0	0	0	0	426	
5	0	0	0	0	424	
6	0	0	0	0	422	
7	0	0	0	0	418	
8	0	0	0	0	414	
9	0	0	0	0	415	
10	0	0	0	0	415	
11	0	0	0	0	417	
12	0	0	0	0	418	
13	0	0	0	0	418	
14	0	0	0	0	417	
15	0	0	0	0	417	
0	0	0	0	0	414	
1	0	0	0	0	413	
2	0	0	0	0	410	
3	0	0	0	0	408	
4	0	0	0	0	409	
5	0	0	0	0	410	
6	0	0	0	0	414	
7	0	0	0	0	414	
8	0	0	0	0	415	
9	0	0	0	0	416	
10	0	0	0	0	418	
11	0	0	0	0	421	
12	0	0	0	0	421	
13	0	0	0	0	419	
14	0	0	0	0	420	
15	0	0	0	0	421	
0	0	0	0	0	420	
1	0	0	0	0	420	
2	0	0	0	0	424	
3	0	0	0	0	432	
4	0	0	0	0	436	
5	0	0	0	0	435	
6	0	0	0	0	435	
7	0	0	0	0	437	
8	0	0	0	0	440	
9	0	0	0	0	439	
10	0	0	0	0	440	
11	0	0	0	0	439	
12	0	0	0	0	435	
13	0	0	0	0	431	
14	0	0	0	0	432	
15	0	0	0	0	435	
0	0	0	0	0	438	
1	0	0	0	0	440	
2	0	0	0	0	443	
3	0	0	0	0	445	
4	0	0	0	0	448	
5	0	0	0	0	449	
6	0	0	0	0	454	
7	0	0	0	0	459	
8	0	0	0	0	462	
9	0	0	0	0	464	
10	0	0	0	0	465	
11	0	0	0	0	465	
12	0	0	0	0	463	
13	0	0	0	0	466	
14	0	0	0	0	470	
15	0	0	0	0	475	
0	0	0	0	0	479	
1	0	0	0	0	483	
2	0	0	0	0	489	
3	0	0	0	0	492	
4	0	0	0	0	493	
5	0	0	0	0	492	
6	0	0	0	0	490	
7	0	0	0	0	492	
8	0	0	0	0	497	
9	0	0	0	0	500	
10	0	0	0	0	505	
11	0	0	0	0	510	
12	0	0	0	0	512	
13	0	0	0	0	514	
14	0	0	0	0	516	
15	0	0	0	0	516	
0	0	0	0	0	518	
1	0	0	0	0	522	
2	0	0	0	0	527	
3	0	0	0	0	530	
4	0	0	0	0	533	
5	0	0	0	0	537	
6	0	0	0	0	540	
7	0	0	0	0	543	
8	0	0	0	0	544	
9	0	0	0	0	547	
10	0	0	0	0	549	
11	0	0	0	0	551	
12	0	0	0	0	554	
13	0	0	0	0	556	
14	0	0	0	0	558	
15	0	0	0	0	561	
0	0	0	0	0	563	
1	0	0	0	0	565	
2	0	0	0	0	563	
3	0	0	0	0	560	
4	0	0	0	0	558	
5	0	0	0	0	559	
6	0	0	0	0	561	
7	0	0	0	0	561	
8	0	0	0	0	562	
9	0	0	0	0	564	
10	0	0	0	0	563	
11	0	0	0	0	563	
12	0	0	0	0	567	
13	0	0	0	0	572	
14	0	0	0	0	574	
15	0	0	0	0	575	
0	0	0	0	0	576	
1	0	0	0	0	576	
2	0	0	0	0	577	
3	0	0	0	0	579	
4	0	0	0	0	579	
5	0	0	0	0	577	
6	0	0	0	0	577	
7	0	0	0	0	579	
8	0	0	0	0	577	
9	0	0	0	0	572	
10	0	0	0	0	570	
11	0	0	0	0	571	
12	0	0	0	0	573	
13	0	0	0	0	572	
14	0	0	0	0	570	
15	0	0	0	0	571	
0	0	0	0	0	569	
1	0	0	0	0	568	
2	0	0	0	0	568	
3	0	0	0	0	569	
4	0	0	0	0	570	
5	0	0	0	0	572	
6	0	0	0	0	572	
7	0	0	0	0	572	
8	0	0	0	0	575	
9	0	0	0	0	577	
10	0	0	0	0	577	
11	0	0	0	0	577	
12	0	0	0	0	573	
13	0	0	0	0	572	
14	0	0	0	0	572	
15	0	0	0	0	571	
0	0	0	0	0	569	
1	0	0	0	0	564	
2	0	0	0	0	561	
3	0	0	0	0	562	
4	0	0	0	0	565	
5	0	0	0	0	565	
6	0	0	0	0	563	
7	0	0	0	0	563	
8	0	0	0	0	564	
9	0	0	0	0	563	
10	0	0	0	0	563	
11	0	0	0	0	563	
12	0	0	0	0	567	
13	0	0	0	0	569	
14	0	0	0	0	570	
15	0	0	0	0	573	
0	0	0	0	0	574	
1	0	0	0	0	570	
2	0	0	0	0	567	
3	0	0	0	0	562	
4	0	0	0	0	559	
5	0	0	0	0	560	
6	0	0	0	0	561	
7	0	0	0	0	564	
8	0	0	0	0	564	
9	0	0	0	0	560	
10	0	0	0	0	556	
11	0	0	0	0	552	
12	0	0	0	0	551	
13	0	0	0	0	553	
14	0	0	0	0	556	
15	0	0	0	0	554	
0	0	0	0	0	551	
1	0	0	0	0	551	
2	0	0	0	0	550	
3	0	0	0	0	547	
4	0	0	0	0	547	
5	0	0	0	0	546	
6	0	0	0	0	544	
7	0	0	0	0	546	
8	0	0	0	0	549	
9	0	0	0	0	551	
10	0	0	0	0	552	
11	0	0	0	0	550	
12	0	0	0	0	547	
13	0	0	0	0	548	
14	0	0	0	0	550	
15	0	0	0	0	550	
0	0	0	0	0	548	
1	0	0	0	0	543	
2	0	0	0	0	540	
3	0	0	0	0	537	
4	0	0	0	0	538	
5	0	0	0	0	538	
6	0	0	0	0	538	
7	0	0	0	0	536	
8	0	0	0	0	534	
9	0	0	0	0	535	
10	0	0	0	0	535	
11	0	0	0	0	535	
12	0	0	0	0	534	
13	0	0	0	0	535	
14	0	0	0	0	537	
15	0	0	0	0	539	
0	0	0	0	0	539	
1	0	0	0	0	540	
2	0	0	0	0	538	
3	0	0	0	0	536	
4	0	0	0	0	537	
5	0	0	0	0	537	
6	0	0	0	0	537	
7	0	0	0	0	534	
8	0	0	0	0	531	
9	0	0	0	0	529	
10	0	0	0	0	529	
11	0	0	0	0	532	
12	0	0	0	0	532	
13	0	0	0	0	531	
14	0	0	0	0	525	
15	0	0	0	0	523	
0	0	0	0	0	523	
1	0	0	0	0	522	
2	0	0	0	0	524	
3	0	0	0	0	529	
4	0	0	0	0	531	
5	0	0	0	0	529	
6	0	0	0	0	527	
7	0	0	0	0	524	
8	0	0	0	0	523	
9	0	0	0	0	523	
10	0	0	0	0	523	
11	0	0	0	0	524	
12	0	0	0	0	526	
13	0	0	0	0	528	
14	0	0	0	0	528	
15	0	0	0	0	527	
0	0	0	0	0	526	
1	0	0	0	0	524	
2	0	0	0	0	523	
3	0	0	0	0	522	
4	0	0	0	0	523	
5	0	0	0	0	522	
6	0	0	0	0	518	
7	0	0	0	0	515	
8	0	0	0	0	515	
9	0	0	0	0	517	
10	0	0	0	0	520	
11	0	0	0	0	522	
12	0	0	0	0	522	
13	0	0	0	0	523	
14	0	0	0	0	524	
15	0	0	0	0	521	
0	0	0	0	0	519	
1	0	0	0	0	518	
2	0	0	0	0	517	
3	0	0	0	0	517	
4	0	0	0	0	517	
5	0	0	0	0	515	
6	0	0	0	0	513	
7	0	0	0	0	512	
8	0	0	0	0	515	
9	0	0	0	0	519	
10	0	0	0	0	519	
11	0	0	0	0	518	
12	0	0	0	0	518	
13	0	0	0	0	517	
14	0	0	0	0	515	
15	0	0	0	0	515	
0	0	0	0	0	519	
1	0	0	0	0	517	
2	0	0	0	0	515	
3	0	0	0	0	518	
4	0	0	0	0	519	
5	0	0	0	0	516	
6	0	0	0	0	514	
7	0	0	0	0	513	
8	0	0	0	0	511	
9	0	0	0	0	511	
10	0	0	0	0	515	
11	0	0	0	0	516	
12	0	0	0	0	513	
13	0	0	0	0	512	
14	0	0	0	0	514	
15	0	0	0	0	517	
0	0	0	0	0	518	
1	0	0	0	0	516	
2	0	0	0	0	517	
3	0	0	0	0	516	
4	0	0	0	0	517	
5	0	0	0	0	518	
6	0	0	0	0	517	
7	0	0	0	0	516	
8	0	0	0	0	513	
9	0	0	0	0	512	
10	0	0	0	0	510	
11	0	0	0	0	511	
12	0	0	0	0	512	
13	0	0	0	0	513	
14	0	0	0	0	512	
15	0	0	0	0	511	
0	0	0	0	0	511	
1	0	0	0	0	513	
2	0	0	0	0	516	
3	0	0	0	0	515	
4	0	0	0	0	515	
5	0	0	0	0	516	
6	0	0	0	0	519	
7	0	0	0	0	520	
8	0	0	0	0	518	
9	0	0	0	0	516	
10	0	0	0	0	513	
11	0	0	0	0	511	
12	0	0	0	0	509	
13	0	0	0	0	512	
14	0	0	0	0	515	
15	0	0	0	0	514	
0	0	0	0	0	512	
1	0	0	0	0	511	
2	0	0	0	0	510	
3	0	0	0	0	510	
4	0	0	0	0	508	
5	0	0	0	0	509	
6	0	0	0	0	511	
7	0	0	0	0	509	
8	0	0	0	0	509	
9	0	0	0	0	511	
10	0	0	0	0	512	
11	0	0	0	0	511	
12	0	0	0	0	511	
13	0	0	0	0	511	
14	0	0	0	0	512	
15	0	0	0	0	512	
0	0	0	0	0	513	
1	0	0	0	0	513	
2	0	0	0	0	515	
3	0	0	0	0	518	
4	0	0	0	0	519	
5	0	0	0	0	520	
6	0	0	0	0	518	
7	0	0	0	0	514	
8	0	0	0	0	512	
9	0	0	0	0	509	
10	0	0	0	0	510	
11	0	0	0	0	511	
12	0	0	0	0	512	
13	0	0	0	0	516	
14	0	0	0	0	518	
15	0	0	0	0	517	
0	0	0	0	0	515	
1	0	0	0	0	514	
2	0	0	0	0	513	
3	0	0	0	0	513	
4	0	0	0	0	512	
5	0	0	0	0	511	
6	0	0	0	0	510	
7	0	0	0	0	507	
8	0	0	0	0	506	
9	0	0	0	0	507	
10	0	0	0	0	505	
11	0	0	0	0	505	
12	0	0	0	0	505	
13	0	0	0	0	507	
14	0	0	0	0	506	
15	0	0	0	0	505	
0	0	0	0	0	506	
1	0	0	0	0	508	
2	0	0	0	0	511	
3	0	0	0	0	512	
4	0	0	0	0	515	
5	0	0	0	0	515	
6	0	0	0	0	516	
7	0	0	0	0	517	
8	0	0	0	0	518	
9	0	0	0	0	516	
10	0	0	0	0	512	
11	0	0	0	0	508	
12	0	0	0	0	511	
13	0	0	0	0	513	
14	0	0	0	0	513	
15	0	0	0	0	514	
0	0	0	0	0	512	
1	0	0	0	0	510	
2	0	0	0	0	509	
3	0	0	0	0	512	
4	0	0	0	0	511	
5	0	0	0	0	511	
6	0	0	0	0	512	
7	0	0	0	0	508	
8	0	0	0	0	504	
9	0	0	0	0	504	
10	0	0	0	0	503	
11	0	0	0	0	501	
12	0	0	0	0	499	
13	0	0	0	0	498	
14	0	0	0	0	497	
15	0	0	0	0	499	
0	0	0	0	0	503	
1	0	0	0	0	505	
2	0	0	0	0	506	
3	0	0	0	0	508	
4	0	0	0	0	509	
5	0	0	0	0	508	
6	0	0	0	0	507	
7	0	0	0	0	507	
8	0	0	0	0	504	
9	0	0	0	0	501	
10	0	0	0	0	500	
11	0	0	0	0	502	
12	0	0	0	0	504	
13	0	0	0	0	504	
14	0	0	0	0	504	
15	0	0	0	0	505	
0	0	0	0	0	505	
1	0	0	0	0	505	
2	0	0	0	0	504	
3	0	0	0	0	503	
4	0	0	0	0	503	
5	0	0	0	0	503	
6	0	0	0	0	505	
7	0	0	0	0	508	
8	0	0	0	0	507	
9	0	0	0	0	503	
10	0	0	0	0	497	
11	0	0	0	0	494	
12	0	0	0	0	492	
13	0	0	0	0	487	
14	0	0	0	0	486	
15	0	0	0	0	487	
0	0	0	0	0	485	
1	0	0	0	0	483	
2	0	0	0	0	483	
3	0	0	0	0	484	
4	0	0	0	0	486	
5	0	0	0	0	487	
6	0	0	0	0	487	
7	0	0	0	0	489	
8	0	0	0	0	490	
9	0	0	0	0	488	
10	0	0	0	0	485	
11	0	0	0	0	485	
12	0	0	0	0	487	
13	0	0	0	0	487	
14	0	0	0	0	486	
15	0	0	0	0	487	
0	0	0	0	0	487	
1	0	0	0	0	491	
2	0	0	0	0	494	
3	0	0	0	0	495	
4	0	0	0	0	495	
5	0	0	0	0	496	
6	0	0	0	0	496	
7	0	0	0	0	499	
8	0	0	0	0	501	
9	0	0	0	0	501	
10	0	0	0	0	499	
11	0	0	0	0	500	
12	0	0	0	0	502	
13	0	0	0	0	505	
14	0	0	0	0	508	
15	0	0	0	0	510	
0	0	0	0	0	510	
1	0	0	0	0	507	
2	0	0	0	0	506	
3	0	0	0	0	507	
4	0	0	0	0	509	
5	0	0	0	0	513	
6	0	0	0	0	516	
7	0	0	0	0	518	
8	0	0	0	0	517	
9	0	0	0	0	517	
10	0	0	0	0	516	
11	0	0	0	0	515	
12	0	0	0	0	515	
13	0	0	0	0	515	
14	0	0	0	0	515	
15	0	0	0	0	514	
0	0	0	0	0	513	
1	0	0	0	0	513	
2	0	0	0	0	512	
3	0	0	0	0	514	
4	0	0	0	0	519	
5	0	0	0	0	523	
6	0	0	0	0	524	
7	0	0	0	0	522	
8	0	0	0	0	520	
9	0	0	0	0	520	
10	0	0	0	0	518	
11	0	0	0	0	512	
12	0	0	0	0	512	
13	0	0	0	0	513	
14	0	0	0	0	512	
15	0	0	0	0	511	
0	0	0	0	0	514	
1	0	0	0	0	517	
2	0	0	0	0	518	
3	0	0	0	0	520	
4	0	0	0	0	523	
5	0	0	0	0	523	
6	0	0	0	0	521	
7	0	0	0	0	518	
8	0	0	0	0	517	
9	0	0	0	0	516	
10	0	0	0	0	516	
11	0	0	0	0	518	
12	0	0	0	0	517	
13	0	0	0	0	519	
14	0	0	0	0	520	
15	0	0	0	0	520	
0	0	0	0	0	520	
1	0	0	0	0	519	
2	0	0	0	0	516	
3	0	0	0	0	513	
4	0	0	0	0	510	
5	0	0	0	0	505	
6	0	0	0	0	497	
7	0	0	0	0	489	
8	0	0	0	0	484	
9	0	0	0	0	479	
10	0	0	0	0	474	
11	0	0	0	0	466	
12	0	0	0	0	459	
13	0	0	0	0	453	
14	0	0	0	0	443	
15	0	0	0	0	432	
0	0	0	0	0	427	
1	0	0	0	0	419	
2	0	0	0	0	411	
3	0	0	0	0	407	
4	0	0	0	0	405	
5	0	0	0	0	405	
6	0	0	0	0	401	
7	0	0	0	0	394	
8	0	0	0	0	386	
9	0	0	0	0	379	
10	0	0	0	0	373	
11	0	0	0	0	370	
12	0	0	0	0	371	
13	0	0	0	0	373	
14	0	0	0	0	372	
15	0	0	0	0	372	
0	0	0	0	0	372	
1	0	0	0	0	376	
2	0	0	0	0	383	
3	0	0	0	0	395	
4	0	0	0	0	408	
5	0	0	0	0	423	
6	0	0	0	0	440	
7	0	0	0	0	459	
8	0	0	0	0	480	
9	0	0	0	0	504	
10	0	0	0	0	526	
11	0	0	0	0	549	
12	0	0	0	0	572	
13	0	0	0	0	598	
14	0	0	0	0	624	
15	0	0	0	0	649	
0	0	0	0	0	671	
1	0	0	0	0	688	
2	0	0	0	0	700	
3	0	0	0	0	710	
4	0	0	0	0	718	
5	0	0	0	0	722	
6	0	0	0	0	725	
7	0	0	0	0	730	
8	0	0	0	0	736	
9	0	0	0	0	737	
10	0	0	0	0	736	
11	0	0	0	0	734	
12	0	0	0	0	731	
13	0	0	0	0	727	
14	0	0	0	0	722	
15	0	0	0	0	715	
0	0	0	0	0	707	
1	0	0	0	0	700	
2	0	0	0	0	694	
3	0	0	0	0	689	
4	0	0	0	0	684	
5	0	0	0	0	677	
6	0	0	0	0	670	
7	0	0	0	0	664	
8	0	0	0	0	658	
9	0	0	0	0	652	
10	0	0	0	0	646	
11	0	0	0	0	641	
12	0	0	0	0	636	
13	0	0	0	0	630	
14	0	0	0	0	622	
15	0	0	0	0	614	
0	0	0	0	0	607	
1	0	0	0	0	598	
2	0	0	0	0	589	
3	0	0	0	0	581	
4	0	0	0	0	569	
5	0	0	0	0	557	
6	0	0	0	0	549	
7	0	0	0	0	547	
8	0	0	0	0	546	
9	0	0	0	0	544	
10	0	0	0	0	535	
11	0	0	0	0	527	
12	0	0	0	0	524	
13	0	0	0	0	519	
14	0	0	0	0	513	
15	0	0	0	0	505	
0	0	0	0	0	496	
1	0	0	0	0	490	
2	0	0	0	0	487	
3	0	0	0	0	485	
4	0	0	0	0	481	
5	0	0	0	0	477	
6	0	0	0	0	473	
7	0	0	0	0	470	
8	0	0	0	0	467	
9	0	0	0	0	466	
10	0	0	0	0	464	
11	0	0	0	0	464	
12	0	0	0	0	464	
13	0	0	0	0	467	
14	0	0	0	0	471	
15	0	0	0	0	472	
0	0	0	0	0	469	
1	0	0	0	0	464	
2	0	0	0	0	460	
3	0	0	0	0	453	
4	0	0	0	0	447	
5	0	0	0	0	445	
6	0	0	0	0	446	
7	0	0	0	0	447	
8	0	0	0	0	447	
9	0	0	0	0	446	
10	0	0	0	0	446	
11	0	0	0	0	448	
12	0	0	0	0	448	
13	0	0	0	0	448	
14	0	0	0	0	447	
15	0	0	0	0	446	
0	0	0	0	0	446	
1	0	0	0	0	448	
2	0	0	0	0	450	
3	0	0	0	0	452	
4	0	0	0	0	451	
5	0	0	0	0	451	
6	0	0	0	0	451	
7	0	0	0	0	454	
8	0	0	0	0	454	
9	0	0	0	0	454	
10	0	0	0	0	451	
11	0	0	0	0	446	
12	0	0	0	0	441	
13	0	0	0	0	441	
14	0	0	0	0	443	
15	0	0	0	0	445	
0	0	0	0	0	446	
1	0	0	0	0	445	
2	0	0	0	0	448	
3	0	0	0	0	451	
4	0	0	0	0	450	
5	0	0	0	0	451	
6	0	0	0	0	450	
7	0	0	0	0	450	
8	0	0	0	0	450	
9	0	0	0	0	448	
10	0	0	0	0	449	
11	0	0	0	0	451	
12	0	0	0	0	454	
13	0	0	0	0	457	
14	0	0	0	0	461	
15	0	0	0	0	466	
0	0	0	0	0	467	
1	0	0	0	0	466	
2	0	0	0	0	463	
3	0	0	0	0	459	
4	0	0	0	0	458	
5	0	0	0	0	459	
6	0	0	0	0	456	
7	0	0	0	0	453	
8	0	0	0	0	448	
9	0	0	0	0	450	
10	0	0	0	0	451	
11	0	0	0	0	448	
12	0	0	0	0	450	
13	0	0	0	0	451	
14	0	0	0	0	451	
15	0	0	0	0	450	
0	0	0	0	0	448	
1	0	0	0	0	449	
2	0	0	0	0	450	
3	0	0	0	0	448	
4	0	0	0	0	447	
5	0	0	0	0	446	
6	0	0	0	0	447	
7	0	0	0	0	447	
8	0	0	0	0	447	
9	0	0	0	0	448	
10	0	0	0	0	449	
11	0	0	0	0	451	
12	0	0	0	0	448	
13	0	0	0	0	443	
14	0	0	0	0	441	
15	0	0	0	0	445	
0	0	0	0	0	447	
1	0	0	0	0	448	
2	0	0	0	0	448	
3	0	0	0	0	448	
4	0	0	0	0	448	
5	0	0	0	0	448	
6	0	0	0	0	446	
7	0	0	0	0	445	
8	0	0	0	0	446	
9	0	0	0	0	446	
10	0	0	0	0	445	
11	0	0	0	0	445	
12	0	0	0	0	445	
13	0	0	0	0	444	
14	0	0	0	0	443	
15	0	0	0	0	436	
0	0	0	0	0	431	
1	0	0	0	0	431	
2	0	0	0	0	430	
3	0	0	0	0	432	
4	0	0	0	0	434	
5	0	0	0	0	434	
6	0	0	0	0	433	
7	0	0	0	0	432	
8	0	0	0	0	433	
9	0	0	0	0	434	
10	0	0	0	0	434	
11	0	0	0	0	433	
12	0	0	0	0	431	
13	0	0	0	0	425	
14	0	0	0	0	425	
15	0	0	0	0	425	
0	0	0	0	0	430	
1	0	0	0	0	439	
2	0	0	0	0	443	
3	0	0	0	0	442	
4	0	0	0	0	441	
5	0	0	0	0	438	
6	0	0	0	0	435	
7	0	0	0	0	432	
8	0	0	0	0	430	
9	0	0	0	0	429	
10	0	0	0	0	430	
11	0	0	0	0	425	
12	0	0	0	0	419	
13	0	0	0	0	417	
14	0	0	0	0	417	
15	0	0	0	0	420	
0	0	0	0	0	423	
1	0	0	0	0	420	
2	0	0	0	0	421	
3	0	0	0	0	423	
4	0	0	0	0	421	
5	0	0	0	0	421	
6	0	0	0	0	420	
7	0	0	0	0	423	
8	0	0	0	0	423	
9	0	0	0	0	427	
10	0	0	0	0	430	
11	0	0	0	0	430	
12	0	0	0	0	428	
13	0	0	0	0	427	
14	0	0	0	0	429	
15	0	0	0	0	431	
0	0	0	0	0	433	
1	0	0	0	0	435	
2	0	0	0	0	435	
3	0	0	0	0	435	
4	0	0	0	0	439	
5	0	0	0	0	442	
6	0	0	0	0	444	
7	0	0	0	0	446	
8	0	0	0	0	446	
9	0	0	0	0	447	
10	0	0	0	0	448	
11	0	0	0	0	447	
12	0	0	0	0	450	
13	0	0	0	0	453	
14	0	0	0	0	454	
15	0	0	0	0	456	
0	0	0	0	0	459	
1	0	0	0	0	463	
2	0	0	0	0	464	
3	0	0	0	0	466	
4	0	0	0	0	471	
5	0	0	0	0	479	
6	0	0	0	0	483	
7	0	0	0	0	483	
8	0	0	0	0	484	
9	0	0	0	0	485	
10	0	0	0	0	485	
11	0	0	0	0	492	
12	0	0	0	0	498	
13	0	0	0	0	501	
14	0	0	0	0	500	
15	0	0	0	0	502	
0	0	0	0	0	505	
1	0	0	0	0	506	
2	0	0	0	0	508	
3	0	0	0	0	511	
4	0	0	0	0	512	
5	0	0	0	0	513	
6	0	0	0	0	515	
7	0	0	0	0	518	
8	0	0	0	0	520	
9	0	0	0	0	524	
10	0	0	0	0	527	
11	0	0	0	0	528	
12	0	0	0	0	527	
13	0	0	0	0	527	
14	0	0	0	0	530	
15	0	0	0	0	535	
0	0	0	0	0	538	
1	0	0	0	0	540	
2	0	0	0	0	542	
3	0	0	0	0	544	
4	0	0	0	0	546	
5	0	0	0	0	550	
6	0	0	0	0	552	
7	0	0	0	0	557	
8	0	0	0	0	560	
9	0	0	0	0	562	
10	0	0	0	0	566	
11	0	0	0	0	571	
12	0	0	0	0	571	
13	0	0	0	0	568	
14	0	0	0	0	565	
15	0	0	0	0	560	
0	0	0	0	0	558	
1	0	0	0	0	558	
2	0	0	0	0	559	
3	0	0	0	0	561	
4	0	0	0	0	565	
5	0	0	0	0	567	
6	0	0	0	0	566	
7	0	0	0	0	567	
8	0	0	0	0	567	
9	0	0	0	0	568	
10	0	0	0	0	567	
11	0	0	0	0	566	
12	0	0	0	0	567	
13	0	0	0	0	570	
14	0	0	0	0	573	
15	0	0	0	0	575	
0	0	0	0	0	576	
1	0	0	0	0	574	
2	0	0	0	0	574	
3	0	0	0	0	574	
4	0	0	0	0	574	
5	0	0	0	0	572	
6	0	0	0	0	571	
7	0	0	0	0	571	
8	0	0	0	0	573	
9	0	0	0	0	572	
10	0	0	0	0	571	
11	0	0	0	0	571	
12	0	0	0	0	573	
13	0	0	0	0	572	
14	0	0	0	0	571	
15	0	0	0	0	569	
0	0	0	0	0	568	
1	0	0	0	0	567	
2	0	0	0	0	567	
3	0	0	0	0	566	
4	0	0	0	0	563	
5	0	0	0	0	564	
6	0	0	0	0	568	
7	0	0	0	0	570	
8	0	0	0	0	569	
9	0	0	0	0	568	
10	0	0	0	0	569	
11	0	0	0	0	568	
12	0	0	0	0	567	
13	0	0	0	0	566	
14	0	0	0	0	563	
15	0	0	0	0	563	
0	0	0	0	0	561	
1	0	0	0	0	559	
2	0	0	0	0	559	
3	0	0	0	0	557	
4	0	0	0	0	558	
5	0	0	0	0	560	
6	0	0	0	0	559	
7	0	0	0	0	557	
8	0	0	0	0	557	
9	0	0	0	0	558	
10	0	0	0	0	558	
11	0	0	0	0	556	
12	0	0	0	0	555	
13	0	0	0	0	555	
14	0	0	0	0	556	
15	0	0	0	0	553	
0	0	0	0	0	553	
1	0	0	0	0	555	
2	0	0	0	0	558	
3	0	0	0	0	559	
4	0	0	0	0	558	
5	0	0	0	0	555	
6	0	0	0	0	552	
7	0	0	0	0	554	
8	0	0	0	0	555	
9	0	0	0	0	553	
10	0	0	0	0	552	
11	0	0	0	0	551	
12	0	0	0	0	551	
13	0	0	0	0	548	
14	0	0	0	0	547	
15	0	0	0	0	548	
0	0	0	0	0	548	
1	0	0	0	0	547	
2	0	0	0	0	544	
3	0	0	0	0	541	
4	0	0	0	0	540	
5	0	0	0	0	540	
6	0	0	0	0	539	
7	0	0	0	0	542	
8	0	0	0	0	545	
9	0	0	0	0	544	
10	0	0	0	0	543	
11	0	0	0	0	546	
12	0	0	0	0	550	
13	0	0	0	0	550	
14	0	0	0	0	549	
15	0	0	0	0	546	
0	0	0	0	0	543	
1	0	0	0	0	540	
2	0	0	0	0	537	
3	0	0	0	0	539	
4	0	0	0	0	543	
5	0	0	0	0	540	
6	0	0	0	0	540	
7	0	0	0	0	537	
8	0	0	0	0	535	
9	0	0	0	0	531	
10	0	0	0	0	529	
11	0	0	0	0	530	
12	0	0	0	0	531	
13	0	0	0	0	536	
14	0	0	0	0	536	
15	0	0	0	0	532	
0	0	0	0	0	529	
1	0	0	0	0	527	
2	0	0	0	0	523	
3	0	0	0	0	522	
4	0	0	0	0	521	
5	0	0	0	0	521	
6	0	0	0	0	524	
7	0	0	0	0	524	
8	0	0	0	0	523	
9	0	0	0	0	524	
10	0	0	0	0	526	
11	0	0	0	0	528	
12	0	0	0	0	530	
13	0	0	0	0	526	
14	0	0	0	0	524	
15	0	0	0	0	525	
0	0	0	0	0	526	
1	0	0	0	0	527	
2	0	0	0	0	526	
3	0	0	0	0	525	
4	0	0	0	0	525	
5	0	0	0	0	523	
6	0	0	0	0	521	
7	0	0	0	0	522	
8	0	0	0	0	522	
9	0	0	0	0	523	
10	0	0	0	0	524	
11	0	0	0	0	525	
12	0	0	0	0	526	
13	0	0	0	0	527	
14	0	0	0	0	529	
15	0	0	0	0	531	
0	0	0	0	0	532	
1	0	0	0	0	533	
2	0	0	0	0	531	
3	0	0	0	0	525	
4	0	0	0	0	522	
5	0	0	0	0	524	
6	0	0	0	0	525	
7	0	0	0	0	523	
8	0	0	0	0	521	
9	0	0	0	0	521	
10	0	0	0	0	521	
11	0	0	0	0	519	
12	0	0	0	0	517	
13	0	0	0	0	517	
14	0	0	0	0	518	
15	0	0	0	0	518	
0	0	0	0	0	519	
1	0	0	0	0	520	
2	0	0	0	0	522	
3	0	0	0	0	526	
4	0	0	0	0	524	
5	0	0	0	0	522	
6	0	0	0	0	519	
7	0	0	0	0	519	
8	0	0	0	0	520	
9	0	0	0	0	519	
10	0	0	0	0	520	
11	0	0	0	0	520	
12	0	0	0	0	521	
13	0	0	0	0	524	
14	0	0	0	0	523	
15	0	0	0	0	520	
0	0	0	0	0	515	
1	0	0	0	0	512	
2	0	0	0	0	513	
3	0	0	0	0	514	
4	0	0	0	0	516	
5	0	0	0	0	518	
6	0	0	0	0	518	
7	0	0	0	0	517	
8	0	0	0	0	518	
9	0	0	0	0	519	
10	0	0	0	0	519	
11	0	0	0	0	518	
12	0	0	0	0	515	
13	0	0	0	0	515	
14	0	0	0	0	515	
15	0	0	0	0	516	
0	0	0	0	0	517	
1	0	0	0	0	519	
2	0	0	0	0	516	
3	0	0	0	0	514	
4	0	0	0	0	512	
5	0	0	0	0	512	
6	0	0	0	0	512	
7	0	0	0	0	513	
8	0	0	0	0	514	
9	0	0	0	0	512	
10	0	0	0	0	511	
11	0	0	0	0	511	
12	0	0	0	0	513	
13	0	0	0	0	515	
14	0	0	0	0	515	
15	0	0	0	0	516	
0	0	0	0	0	516	
1	0	0	0	0	515	
2	0	0	0	0	514	
3	0	0	0	0	515	
4	0	0	0	0	517	
5	0	0	0	0	519	
6	0	0	0	0	520	
7	0	0	0	0	520	
8	0	0	0	0	520	
9	0	0	0	0	519	
10	0	0	0	0	519	
11	0	0	0	0	514	
12	0	0	0	0	513	
13	0	0	0	0	513	
14	0	0	0	0	514	
15	0	0	0	0	515	
0	0	0	0	0	516	
1	0	0	0	0	514	
2	0	0	0	0	512	
3	0	0	0	0	508	
4	0	0	0	0	508	
5	0	0	0	0	508	
6	0	0	0	0	508	
7	0	0	0	0	509	
8	0	0	0	0	512	
9	0	0	0	0	515	
10	0	0	0	0	517	
11	0	0	0	0	518	
12	0	0	0	0	519	
13	0	0	0	0	524	
14	0	0	0	0	525	
15	0	0	0	0	522	
0	0	0	0	0	520	
1	0	0	0	0	520	
2	0	0	0	0	522	
3	0	0	0	0	524	
4	0	0	0	0	519	
5	0	0	0	0	514	
6	0	0	0	0	513	
7	0	0	0	0	514	
8	0	0	0	0	513	
9	0	0	0	0	510	
10	0	0	0	0	512	
11	0	0	0	0	514	
12	0	0	0	0	511	
13	0	0	0	0	508	
14	0	0	0	0	509	
15	0	0	0	0	511	
0	0	0	0	0	510	
1	0	0	0	0	512	
2	0	0	0	0	513	
3	0	0	0	0	513	
4	0	0	0	0	511	
5	0	0	0	0	511	
6	0	0	0	0	510	
7	0	0	0	0	507	
8	0	0	0	0	505	
9	0	0	0	0	503	
10	0	0	0	0	502	
11	0	0	0	0	504	
12	0	0	0	0	507	
13	0	0	0	0	509	
14	0	0	0	0	509	
15	0	0	0	0	510	
0	0	0	0	0	509	
1	0	0	0	0	508	
2	0	0	0	0	510	
3	0	0	0	0	512	
4	0	0	0	0	511	
5	0	0	0	0	511	
6	0	0	0	0	511	
7	0	0	0	0	513	
8	0	0	0	0	516	
9	0	0	0	0	514	
10	0	0	0	0	510	
11	0	0	0	0	510	
12	0	0	0	0	510	
13	0	0	0	0	509	
14	0	0	0	0	508	
15	0	0	0	0	511	
0	0	0	0	0	515	
1	0	0	0	0	516	
2	0	0	0	0	515	
3	0	0	0	0	515	
4	0	0	0	0	515	
5	0	0	0	0	514	
6	0	0	0	0	513	
7	0	0	0	0	514	
8	0	0	0	0	512	
9	0	0	0	0	508	
10	0	0	0	0	507	
11	0	0	0	0	507	
12	0	0	0	0	510	
13	0	0	0	0	513	
14	0	0	0	0	514	
15	0	0	0	0	513	
0	0	0	0	0	513	
1	0	0	0	0	512	
2	0	0	0	0	515	
3	0	0	0	0	515	
4	0	0	0	0	513	
5	0	0	0	0	514	
6	0	0	0	0	510	
7	0	0	0	0	509	
8	0	0	0	0	508	
9	0	0	0	0	505	
10	0	0	0	0	503	
11	0	0	0	0	504	
12	0	0	0	0	507	
13	0	0	0	0	512	
14	0	0	0	0	517	
15	0	0	0	0	519	
0	0	0	0	0	515	
1	0	0	0	0	508	
2	0	0	0	0	504	
3	0	0	0	0	504	
4	0	0	0	0	501	
5	0	0	0	0	498	
6	0	0	0	0	499	
7	0	0	0	0	501	
8	0	0	0	0	502	
9	0	0	0	0	503	
10	0	0	0	0	506	
11	0	0	0	0	508	
12	0	0	0	0	508	
13	0	0	0	0	509	
14	0	0	0	0	510	
15	0	0	0	0	511	
0	0	0	0	0	508	
1	0	0	0	0	507	
2	0	0	0	0	506	
3	0	0	0	0	504	
4	0	0	0	0	501	
5	0	0	0	0	498	
6	0	0	0	0	496	
7	0	0	0	0	497	
8	0	0	0	0	496	
9	0	0	0	0	497	
10	0	0	0	0	498	
11	0	0	0	0	502	
12	0	0	0	0	504	
13	0	0	0	0	507	
14	0	0	0	0	508	
15	0	0	0	0	506	
0	0	0	0	0	505	
1	0	0	0	0	508	
2	0	0	0	0	511	
3	0	0	0	0	513	
4	0	0	0	0	512	
5	0	0	0	0	511	
6	0	0	0	0	511	
7	0	0	0	0	511	
8	0	0	0	0	511	
9	0	0	0	0	512	
10	0	0	0	0	510	
11	0	0	0	0	507	
12	0	0	0	0	500	
13	0	0	0	0	494	
14	0	0	0	0	490	
15	0	0	0	0	487	
0	0	0	0	0	487	
1	0	0	0	0	488	
2	0	0	0	0	488	
3	0	0	0	0	488	
4	0	0	0	0	489	
5	0	0	0	0	491	
6	0	0	0	0	489	
7	0	0	0	0	488	
8	0	0	0	0	489	
9	0	0	0	0	491	
10	0	0	0	0	492	
11	0	0	0	0	491	
12	0	0	0	0	490	
13	0	0	0	0	492	
14	0	0	0	0	495	
15	0	0	0	0	497	
0	0	0	0	0	499	
1	0	0	0	0	499	
2	0	0	0	0	495	
3	0	0	0	0	492	
4	0	0	0	0	489	
5	0	0	0	0	486	
6	0	0	0	0	484	
7	0	0	0	0	483	
8	0	0	0	0	483	
9	0	0	0	0	485	
10	0	0	0	0	487	
11	0	0	0	0	487	
12	0	0	0	0	484	
13	0	0	0	0	484	
14	0	0	0	0	483	
15	0	0	0	0	483	
0	0	0	0	0	485	
1	0	0	0	0	485	
2	0	0	0	0	488	
3	0	0	0	0	491	
4	0	0	0	0	494	
5	0	0	0	0	495	
6	0	0	0	0	495	
7	0	0	0	0	494	
8	0	0	0	0	494	
9	0	0	0	0	496	
10	0	0	0	0	498	
11	0	0	0	0	499	
12	0	0	0	0	497	
13	0	0	0	0	496	
14	0	0	0	0	497	
15	0	0	0	0	499	
0	0	0	0	0	500	
1	0	0	0	0	501	
2	0	0	0	0	502	
3	0	0	0	0	502	
4	0	0	0	0	507	
5	0	0	0	0	511	
6	0	0	0	0	513	
7	0	0	0	0	518	
8	0	0	0	0	518	
9	0	0	0	0	516	
10	0	0	0	0	514	
11	0	0	0	0	513	
12	0	0	0	0	515	
13	0	0	0	0	515	
14	0	0	0	0	515	
15	0	0	0	0	513	
0	0	0	0	0	511	
1	0	0	0	0	511	
2	0	0	0	0	511	
3	0	0	0	0	513	
4	0	0	0	0	514	
5	0	0	0	0	515	
6	0	0	0	0	515	
7	0	0	0	0	515	
8	0	0	0	0	517	
9	0	0	0	0	518	
10	0	0	0	0	516	
11	0	0	0	0	515	
12	0	0	0	0	514	
13	0	0	0	0	515	
14	0	0	0	0	519	
15	0	0	0	0	522	
0	0	0	0	0	522	
1	0	0	0	0	521	
2	0	0	0	0	517	
3	0	0	0	0	516	
4	0	0	0	0	519	
5	0	0	0	0	515	
6	0	0	0	0	512	
7	0	0	0	0	513	
8	0	0	0	0	517	
9	0	0	0	0	515	
10	0	0	0	0	511	
11	0	0	0	0	508	
12	0	0	0	0	507	
13	0	0	0	0	505	
14	0	0	0	0	504	
15	0	0	0	0	503	
0	0	0	0	0	503	
1	0	0	0	0	502	
2	0	0	0	0	501	
3	0	0	0	0	499	
4	0	0	0	0	493	
5	0	0	0	0	484	
6	0	0	0	0	479	
7	0	0	0	0	475	
8	0	0	0	0	472	
9	0	0	0	0	468	
10	0	0	0	0	465	
11	0	0	0	0	459	
12	0	0	0	0	452	
13	0	0	0	0	445	
14	0	0	0	0	437	
15	0	0	0	0	430	
0	0	0	0	0	423	
1	0	0	0	0	420	
2	0	0	0	0	416	
3	0	0	0	0	410	
4	0	0	0	0	399	
5	0	0	0	0	392	
6	0	0	0	0	387	
7	0	0	0	0	383	
8	0	0	0	0	380	
9	0	0	0	0	376	
10	0	0	0	0	372	
11	0	0	0	0	373	
12	0	0	0	0	374	
13	0	0	0	0	375	
14	0	0	0	0	378	
15	0	0	0	0	382	
0	0	0	0	0	387	
1	0	0	0	0	396	
2	0	0	0	0	408	
3	0	0	0	0	423	
4	0	0	0	0	438	
5	0	0	0	0	454	
6	0	0	0	0	472	
7	0	0	0	0	492	
8	0	0	0	0	513	
9	0	0	0	0	536	
10	0	0	0	0	557	
11	0	0	0	0	580	
12	0	0	0	0	605	
13	0	0	0	0	628	
14	0	0	0	0	649	
15	0	0	0	0	669	
0	0	0	0	0	683	
1	0	0	0	0	695	
2	0	0	0	0	705	
3	0	0	0	0	710	
4	0	0	0	0	711	
5	0	0	0	0	714	
6	0	0	0	0	720	
7	0	0	0	0	725	
8	0	0	0	0	727	
9	0	0	0	0	728	
10	0	0	0	0	726	
11	0	0	0	0	723	
12	0	0	0	0	720	
13	0	0	0	0	713	
14	0	0	0	0	707	
15	0	0	0	0	701	
0	0	0	0	0	697	
1	0	0	0	0	692	
2	0	0	0	0	687	
3	0	0	0	0	682	
4	0	0	0	0	675	
5	0	0	0	0	670	
6	0	0	0	0	662	
7	0	0	0	0	654	
8	0	0	0	0	646	
9	0	0	0	0	641	
10	0	0	0	0	637	
11	0	0	0	0	629	
12	0	0	0	0	623	
13	0	0	0	0	616	
14	0	0	0	0	609	
15	0	0	0	0	601	
0	0	0	0	0	592	
1	0	0	0	0	583	
2	0	0	0	0	572	
3	0	0	0	0	561	
4	0	0	0	0	556	
5	0	0	0	0	550	
6	0	0	0	0	545	
7	0	0	0	0	539	
8	0	0	0	0	532	
9	0	0	0	0	522	
10	0	0	0	0	515	
11	0	0	0	0	510	
12	0	0	0	0	505	
13	0	0	0	0	502	
14	0	0	0	0	498	
15	0	0	0	0	491	
0	0	0	0	0	486	
1	0	0	0	0	481	
2	0	0	0	0	478	
3	0	0	0	0	473	
4	0	0	0	0	470	
5	0	0	0	0	470	
6	0	0	0	0	468	
7	0	0	0	0	469	
8	0	0	0	0	470	
9	0	0	0	0	470	
10	0	0	0	0	472	
11	0	0	0	0	472	
12	0	0	0	0	469	
13	0	0	0	0	467	
14	0	0	0	0	464	
15	0	0	0	0	459	
0	0	0	0	0	455	
1	0	0	0	0	457	
2	0	0	0	0	457	
3	0	0	0	0	456	
4	0	0	0	0	456	
5	0	0	0	0	459	
6	0	0	0	0	461	
7	0	0	0	0	462	
8	0	0	0	0	461	
9	0	0	0	0	456	
10	0	0	0	0	451	
11	0	0	0	0	449	
12	0	0	0	0	451	
13	0	0	0	0	452	
14	0	0	0	0	449	
15	0	0	0	0	447	
0	0	0	0	0	448	
1	0	0	0	0	448	
2	0	0	0	0	448	
3	0	0	0	0	449	
4	0	0	0	0	449	
5	0	0	0	0	449	
6	0	0	0	0	450	
7	0	0	0	0	451	
8	0	0	0	0	451	
9	0	0	0	0	452	
10	0	0	0	0	455	
11	0	0	0	0	460	
12	0	0	0	0	464	
13	0	0	0	0	464	
14	0	0	0	0	464	
15	0	0	0	0	463	
0	0	0	0	0	460	
1	0	0	0	0	456	
2	0	0	0	0	452	
3	0	0	0	0	451	
4	0	0	0	0	450	
5	0	0	0	0	448	
6	0	0	0	0	446	
7	0	0	0	0	445	
8	0	0	0	0	445	
9	0	0	0	0	447	
10	0	0	0	0	447	
11	0	0	0	0	447	
12	0	0	0	0	448	
13	0	0	0	0	451	
14	0	0	0	0	453	
15	0	0	0	0	455	
0	0	0	0	0	457	
1	0	0	0	0	459	
2	0	0	0	0	462	
3	0	0	0	0	462	
4	0	0	0	0	457	
5	0	0	0	0	453	
6	0	0	0	0	451	
7	0	0	0	0	447	
8	0	0	0	0	444	
9	0	0	0	0	444	
10	0	0	0	0	444	
11	0	0	0	0	447	
12	0	0	0	0	449	
13	0	0	0	0	451	
14	0	0	0	0	451	
15	0	0	0	0	450	
0	0	0	0	0	450	
1	0	0	0	0	451	
2	0	0	0	0	451	
3	0	0	0	0	450	
4	0	0	0	0	450	
5	0	0	0	0	449	
6	0	0	0	0	448	
7	0	0	0	0	450	
8	0	0	0	0	453	
9	0	0	0	0	455	
10	0	0	0	0	456	
11	0	0	0	0	455	
12	0	0	0	0	451	
13	0	0	0	0	449	
14	0	0	0	0	448	
15	0	0	0	0	448	
0	0	0	0	0	449	
1	0	0	0	0	451	
2	0	0	0	0	448	
3	0	0	0	0	446	
4	0	0	0	0	447	
5	0	0	0	0	449	
6	0	0	0	0	446	
7	0	0	0	0	448	
8	0	0	0	0	451	
9	0	0	0	0	455	
10	0	0	0	0	455	
11	0	0	0	0	455	
12	0	0	0	0	453	
13	0	0	0	0	451	
14	0	0	0	0	449	
15	0	0	0	0	448	
0	0	0	0	0	444	
1	0	0	0	0	443	
2	0	0	0	0	440	
3	0	0	0	0	438	
4	0	0	0	0	433	
5	0	0	0	0	428	
6	0	0	0	0	425	
7	0	0	0	0	425	
8	0	0	0	0	427	
9	0	0	0	0	427	
10	0	0	0	0	430	
11	0	0	0	0	432	
12	0	0	0	0	434	
13	0	0	0	0	438	
14	0	0	0	0	442	
15	0	0	0	0	444	
0	0	0	0	0	440	
1	0	0	0	0	434	
2	0	0	0	0	432	
3	0	0	0	0	431	
4	0	0	0	0	431	
5	0	0	0	0	431	
6	0	0	0	0	431	
7	0	0	0	0	430	
8	0	0	0	0	427	
9	0	0	0	0	425	
10	0	0	0	0	423	
11	0	0	0	0	423	
12	0	0	0	0	422	
13	0	0	0	0	424	
14	0	0	0	0	427	
15	0	0	0	0	430	
0	0	0	0	0	431	
1	0	0	0	0	433	
2	0	0	0	0	437	
3	0	0	0	0	440	
4	0	0	0	0	441	
5	0	0	0	0	439	
6	0	0	0	0	435	
7	0	0	0	0	436	
8	0	0	0	0	440	
9	0	0	0	0	440	
10	0	0	0	0	440	
11	0	0	0	0	442	
12	0	0	0	0	441	
13	0	0	0	0	439	
14	0	0	0	0	438	
15	0	0	0	0	439	
0	0	0	0	0	441	
1	0	0	0	0	441	
2	0	0	0	0	443	
3	0	0	0	0	447	
4	0	0	0	0	448	
5	0	0	0	0	449	
6	0	0	0	0	454	
7	0	0	0	0	460	
8	0	0	0	0	465	
9	0	0	0	0	468	
10	0	0	0	0	466	
11	0	0	0	0	460	
12	0	0	0	0	455	
13	0	0	0	0	456	
14	0	0	0	0	458	
15	0	0	0	0	463	
0	0	0	0	0	467	
1	0	0	0	0	471	
2	0	0	0	0	475	
3	0	0	0	0	478	
4	0	0	0	0	481	
5	0	0	0	0	481	
6	0	0	0	0	481	
7	0	0	0	0	482	
8	0	0	0	0	483	
9	0	0	0	0	483	
10	0	0	0	0	487	
11	0	0	0	0	491	
12	0	0	0	0	497	
13	0	0	0	0	502	
14	0	0	0	0	507	
15	0	0	0	0	511	
0	0	0	0	0	512	
1	0	0	0	0	511	
2	0	0	0	0	512	
3	0	0	0	0	514	
4	0	0	0	0	515	
5	0	0	0	0	515	
6	0	0	0	0	515	
7	0	0	0	0	516	
8	0	0	0	0	520	
9	0	0	0	0	524	
10	0	0	0	0	527	
11	0	0	0	0	526	
12	0	0	0	0	527	
13	0	0	0	0	527	
14	0	0	0	0	527	
15	0	0	0	0	528	
0	0	0	0	0	531	
1	0	0	0	0	535	
2	0	0	0	0	540	
3	0	0	0	0	544	
4	0	0	0	0	547	
5	0	0	0	0	548	
6	0	0	0	0	551	
7	0	0	0	0	553	
8	0	0	0	0	553	
9	0	0	0	0	556	
10	0	0	0	0	557	
11	0	0	0	0	558	
12	0	0	0	0	560	
13	0	0	0	0	561	
14	0	0	0	0	562	
15	0	0	0	0	560	
0	0	0	0	0	559	
1	0	0	0	0	559	
2	0	0	0	0	560	
3	0	0	0	0	561	
4	0	0	0	0	564	
5	0	0	0	0	566	
6	0	0	0	0	565	
7	0	0	0	0	564	
8	0	0	0	0	563	
9	0	0	0	0	563	
10	0	0	0	0	562	
11	0	0	0	0	563	
12	0	0	0	0	562	
13	0	0	0	0	563	
14	0	0	0	0	562	
15	0	0	0	0	563	
0	0	0	0	0	563	
1	0	0	0	0	564	
2	0	0	0	0	568	
3	0	0	0	0	570	
4	0	0	0	0	569	
5	0	0	0	0	570	
6	0	0	0	0	571	
7	0	0	0	0	571	
8	0	0	0	0	571	
9	0	0	0	0	572	
10	0	0	0	0	574	
11	0	0	0	0	573	
12	0	0	0	0	571	
13	0	0	0	0	571	
14	0	0	0	0	569	
15	0	0	0	0	565	
0	0	0	0	0	561	
1	0	0	0	0	562	
2	0	0	0	0	565	
3	0	0	0	0	566	
4	0	0	0	0	566	
5	0	0	0	0	568	
6	0	0	0	0	567	
7	0	0	0	0	568	
8	0	0	0	0	565	
9	0	0	0	0	561	
10	0	0	0	0	561	
11	0	0	0	0	563	
12	0	0	0	0	563	
13	0	0	0	0	566	
14	0	0	0	0	569	
15	0	0	0	0	572	
0	0	0	0	0	570	
1	0	0	0	0	567	
2	0	0	0	0	564	
3	0	0	0	0	559	
4	0	0	0	0	557	
5	0	0	0	0	560	
6	0	0	0	0	563	
7	0	0	0	0	562	
8	0	0	0	0	561	
9	0	0	0	0	558	
10	0	0	0	0	554	
11	0	0	0	0	551	
12	0	0	0	0	549	
13	0	0	0	0	550	
14	0	0	0	0	548	
15	0	0	0	0	547	
0	0	0	0	0	547	
1	0	0	0	0	546	
2	0	0	0	0	547	
3	0	0	0	0	548	
4	0	0	0	0	547	
5	0	0	0	0	546	
6	0	0	0	0	544	
7	0	0	0	0	543	
8	0	0	0	0	544	
9	0	0	0	0	546	
10	0	0	0	0	545	
11	0	0	0	0	545	
12	0	0	0	0	545	
13	0	0	0	0	545	
14	0	0	0	0	544	
15	0	0	0	0	544	
0	0	0	0	0	543	
1	0	0	0	0	540	
2	0	0	0	0	541	
3	0	0	0	0	543	
4	0	0	0	0	545	
5	0	0	0	0	546	
6	0	0	0	0	547	
7	0	0	0	0	546	
8	0	0	0	0	544	
9	0	0	0	0	544	
10	0	0	0	0	542	
11	0	0	0	0	542	
12	0	0	0	0	539	
13	0	0	0	0	538	
14	0	0	0	0	539	
15	0	0	0	0	540	
0	0	0	0	0	541	
1	0	0	0	0	539	
2	0	0	0	0	539	
3	0	0	0	0	538	
4	0	0	0	0	534	
5	0	0	0	0	533	
6	0	0	0	0	532	
7	0	0	0	0	531	
8	0	0	0	0	531	
9	0	0	0	0	531	
10	0	0	0	0	532	
11	0	0	0	0	533	
12	0	0	0	0	531	
13	0	0	0	0	532	
14	0	0	0	0	534	
15	0	0	0	0	535	
0	0	0	0	0	532	
1	0	0	0	0	532	
2	0	0	0	0	534	
3	0	0	0	0	538	
4	0	0	0	0	540	
5	0	0	0	0	538	
6	0	0	0	0	537	
7	0	0	0	0	534	
8	0	0	0	0	529	
9	0	0	0	0	527	
10	0	0	0	0	526	
11	0	0	0	0	526	
12	0	0	0	0	526	
13	0	0	0	0	525	
14	0	0	0	0	522	
15	0	0	0	0	519	
0	0	0	0	0	517	
1	0	0	0	0	514	
2	0	0	0	0	513	
3	0	0	0	0	517	
4	0	0	0	0	521	
5	0	0	0	0	522	
6	0	0	0	0	521	
7	0	0	0	0	518	
8	0	0	0	0	519	
9	0	0	0	0	523	
10	0	0	0	0	525	
11	0	0	0	0	524	
12	0	0	0	0	523	
13	0	0	0	0	520	
14	0	0	0	0	519	
15	0	0	0	0	519	
0	0	0	0	0	519	
1	0	0	0	0	519	
2	0	0	0	0	518	
3	0	0	0	0	515	
4	0	0	0	0	515	
5	0	0	0	0	517	
6	0	0	0	0	517	
7	0	0	0	0	517	
8	0	0	0	0	517	
9	0	0	0	0	519	
10	0	0	0	0	520	
11	0	0	0	0	520	
12	0	0	0	0	520	
13	0	0	0	0	523	
14	0	0	0	0	526	
15	0	0	0	0	527	
0	0	0	0	0	527	
1	0	0	0	0	524	
2	0	0	0	0	521	
3	0	0	0	0	520	
4	0	0	0	0	519	
5	0	0	0	0	515	
6	0	0	0	0	513	
7	0	0	0	0	511	
8	0	0	0	0	513	
9	0	0	0	0	515	
10	0	0	0	0	514	
11	0	0	0	0	512	
12	0	0	0	0	513	
13	0	0	0	0	515	
14	0	0	0	0	518	
15	0	0	0	0	519	
0	0	0	0	0	519	
1	0	0	0	0	522	
2	0	0	0	0	522	
3	0	0	0	0	516	
4	0	0	0	0	511	
5	0	0	0	0	508	
6	0	0	0	0	508	
7	0	0	0	0	512	
8	0	0	0	0	517	
9	0	0	0	0	519	
10	0	0	0	0	517	
11	0	0	0	0	518	
12	0	0	0	0	519	
13	0	0	0	0	522	
14	0	0	0	0	524	
15	0	0	0	0	524	
0	0	0	0	0	522	
1	0	0	0	0	523	
2	0	0	0	0	522	
3	0	0	0	0	520	
4	0	0	0	0	519	
5	0	0	0	0	520	
6	0	0	0	0	521	
7	0	0	0	0	520	
8	0	0	0	0	517	
9	0	0	0	0	513	
10	0	0	0	0	512	
11	0	0	0	0	512	
12	0	0	0	0	512	
13	0	0	0	0	511	
14	0	0	0	0	510	
15	0	0	0	0	510	
0	0	0	0	0	508	
1	0	0	0	0	506	
2	0	0	0	0	508	
3	0	0	0	0	509	
4	0	0	0	0	507	
5	0	0	0	0	508	
6	0	0	0	0	509	
7	0	0	0	0	511	
8	0	0	0	0	512	
9	0	0	0	0	510	
10	0	0	0	0	508	
11	0	0	0	0	511	
12	0	0	0	0	512	
13	0	0	0	0	512	
14	0	0	0	0	514	
15	0	0	0	0	515	
0	0	0	0	0	515	
1	0	0	0	0	517	
2	0	0	0	0	517	
3	0	0	0	0	516	
4	0	0	0	0	515	
5	0	0	0	0	515	
6	0	0	0	0	515	
7	0	0	0	0	512	
8	0	0	0	0	511	
9	0	0	0	0	511	
10	0	0	0	0	513	
11	0	0	0	0	515	
12	0	0	0	0	512	
13	0	0	0	0	511	
14	0	0	0	0	512	
15	0	0	0	0	512	
0	0	0	0	0	511	
1	0	0	0	0	510	
2	0	0	0	0	508	
3	0	0	0	0	508	
4	0	0	0	0	508	
5	0	0	0	0	509	
6	0	0	0	0	510	
7	0	0	0	0	508	
8	0	0	0	0	508	
9	0	0	0	0	509	
10	0	0	0	0	512	
11	0	0	0	0	510	
12	0	0	0	0	509	
13	0	0	0	0	509	
14	0	0	0	0	511	
15	0	0	0	0	513	
0	0	0	0	0	515	
1	0	0	0	0	516	
2	0	0	0	0	514	
3	0	0	0	0	512	
4	0	0	0	0	513	
5	0	0	0	0	515	
6	0	0	0	0	517	
7	0	0	0	0	519	
8	0	0	0	0	516	
9	0	0	0	0	515	
10	0	0	0	0	519	
11	0	0	0	0	519	
12	0	0	0	0	515	
13	0	0	0	0	504	
14	0	0	0	0	501	
15	0	0	0	0	501	
0	0	0	0	0	502	
1	0	0	0	0	504	
2	0	0	0	0	505	
3	0	0	0	0	506	
4	0	0	0	0	507	
5	0	0	0	0	506	
6	0	0	0	0	507	
7	0	0	0	0	504	
8	0	0	0	0	503	
9	0	0	0	0	504	
10	0	0	0	0	505	
11	0	0	0	0	505	
12	0	0	0	0	507	
13	0	0	0	0	512	
14	0	0	0	0	514	
15	0	0	0	0	514	
0	0	0	0	0	512	
1	0	0	0	0	510	
2	0	0	0	0	507	
3	0	0	0	0	507	
4	0	0	0	0	505	
5	0	0	0	0	504	
6	0	0	0	0	504	
7	0	0	0	0	507	
8	0	0	0	0	509	
9	0	0	0	0	513	
10	0	0	0	0	514	
11	0	0	0	0	514	
12	0	0	0	0	513	
13	0	0	0	0	512	
14	0	0	0	0	509	
15	0	0	0	0	511	
0	0	0	0	0	513	
1	0	0	0	0	510	
2	0	0	0	0	504	
3	0	0	0	0	502	
4	0	0	0	0	503	
5	0	0	0	0	505	
6	0	0	0	0	507	
7	0	0	0	0	507	
8	0	0	0	0	505	
9	0	0	0	0	503	
10	0	0	0	0	502	
11	0	0	0	0	504	
12	0	0	0	0	504	
13	0	0	0	0	505	
14	0	0	0	0	507	
15	0	0	0	0	508	
0	0	0	0	0	509	
1	0	0	0	0	510	
2	0	0	0	0	512	
3	0	0	0	0	513	
4	0	0	0	0	512	
5	0	0	0	0	510	
6	0	0	0	0	508	
7	0	0	0	0	509	
8	0	0	0	0	510	
9	0	0	0	0	509	
10	0	0	0	0	508	
11	0	0	0	0	508	
12	0	0	0	0	509	
13	0	0	0	0	508	
14	0	0	0	0	508	
15	0	0	0	0	508	
0	0	0	0	0	506	
1	0	0	0	0	504	
2	0	0	0	0	504	
3	0	0	0	0	505	
4	0	0	0	0	506	
5	0	0	0	0	509	
6	0	0	0	0	509	
7	0	0	0	0	508	
8	0	0	0	0	508	
9	0	0	0	0	511	
10	0	0	0	0	511	
11	0	0	0	0	513	
12	0	0	0	0	515	
13	0	0	0	0	512	
14	0	0	0	0	507	
15	0	0	0	0	507	
0	0	0	0	0	505	
1	0	0	0	0	504	
2	0	0	0	0	503	
3	0	0	0	0	503	
4	0	0	0	0	506	
5	0	0	0	0	508	
6	0	0	0	0	507	
7	0	0	0	0	505	
8	0	0	0	0	503	
9	0	0	0	0	503	
10	0	0	0	0	506	
11	0	0	0	0	504	
12	0	0	0	0	503	
13	0	0	0	0	506	
14	0	0	0	0	508	
15	0	0	0	0	508	
0	0	0	0	0	504	
1	0	0	0	0	504	
2	0	0	0	0	503	
3	0	0	0	0	499	
4	0	0	0	0	497	
5	0	0	0	0	497	
6	0	0	0	0	497	
7	0	0	0	0	497	
8	0	0	0	0	497	
9	0	0	0	0	500	
10	0	0	0	0	498	
11	0	0	0	0	497	
12	0	0	0	0	498	
13	0	0	0	0	501	
14	0	0	0	0	502	
15	0	0	0	0	503	
0	0	0	0	0	504	
1	0	0	0	0	506	
2	0	0	0	0	508	
3	0	0	0	0	510	
4	0	0	0	0	512	
5	0	0	0	0	513	
6	0	0	0	0	511	
7	0	0	0	0	509	
8	0	0	0	0	507	
9	0	0	0	0	507	
10	0	0	0	0	507	
11	0	0	0	0	506	
12	0	0	0	0	506	
13	0	0	0	0	506	
14	0	0	0	0	507	
15	0	0	0	0	507	
0	0	0	0	0	507	
1	0	0	0	0	504	
2	0	0	0	0	499	
3	0	0	0	0	497	
4	0	0	0	0	495	
5	0	0	0	0	495	
6	0	0	0	0	496	
7	0	0	0	0	494	
8	0	0	0	0	492	
9	0	0	0	0	493	
10	0	0	0	0	493	
11	0	0	0	0	490	
12	0	0	0	0	485	
13	0	0	0	0	484	
14	0	0	0	0	485	
15	0	0	0	0	485	
0	0	0	0	0	485	
1	0	0	0	0	487	
2	0	0	0	0	489	
3	0	0	0	0	491	
4	0	0	0	0	491	
5	0	0	0	0	490	
6	0	0	0	0	490	
7	0	0	0	0	492	
8	0	0	0	0	493	
9	0	0	0	0	492	
10	0	0	0	0	487	
11	0	0	0	0	488	
12	0	0	0	0	491	
13	0	0	0	0	485	
14	0	0	0	0	483	
15	0	0	0	0	481	
0	0	0	0	0	480	
1	0	0	0	0	483	
2	0	0	0	0	487	
3	0	0	0	0	492	
4	0	0	0	0	495	
5	0	0	0	0	497	
6	0	0	0	0	493	
7	0	0	0	0	488	
8	0	0	0	0	487	
9	0	0	0	0	490	
10	0	0	0	0	489	
11	0	0	0	0	490	
12	0	0	0	0	493	
13	0	0	0	0	493	
14	0	0	0	0	495	
15	0	0	0	0	497	
0	0	0	0	0	498	
1	0	0	0	0	497	
2	0	0	0	0	499	
3	0	0	0	0	499	
4	0	0	0	0	499	
5	0	0	0	0	502	
6	0	0	0	0	504	
7	0	0	0	0	504	
8	0	0	0	0	505	
9	0	0	0	0	507	
10	0	0	0	0	509	
11	0	0	0	0	511	
12	0	0	0	0	513	
13	0	0	0	0	515	
14	0	0	0	0	515	
15	0	0	0	0	515	
0	0	0	0	0	516	
1	0	0	0	0	518	
2	0	0	0	0	516	
3	0	0	0	0	514	
4	0	0	0	0	511	
5	0	0	0	0	510	
6	0	0	0	0	510	
7	0	0	0	0	513	
8	0	0	0	0	514	
9	0	0	0	0	515	
10	0	0	0	0	515	
11	0	0	0	0	515	
12	0	0	0	0	516	
13	0	0	0	0	514	
14	0	0	0	0	512	
15	0	0	0	0	512	
0	0	0	0	0	512	
1	0	0	0	0	515	
2	0	0	0	0	516	
3	0	0	0	0	518	
4	0	0	0	0	519	
5	0	0	0	0	518	
6	0	0	0	0	520	
7	0	0	0	0	519	
8	0	0	0	0	518	
9	0	0	0	0	520	
10	0	0	0	0	519	
11	0	0	0	0	517	
12	0	0	0	0	516	
13	0	0	0	0	515	
14	0	0	0	0	512	
15	0	0	0	0	511	
0	0	0	0	0	511	
1	0	0	0	0	508	
2	0	0	0	0	507	
3	0	0	0	0	507	
4	0	0	0	0	504	
5	0	0	0	0	501	
6	0	0	0	0	499	
7	0	0	0	0	496	
8	0	0	0	0	488	
9	0	0	0	0	483	
10	0	0	0	0	477	
11	0	0	0	0	472	
12	0	0	0	0	467	
13	0	0	0	0	461	
14	0	0	0	0	452	
15	0	0	0	0	444	
0	0	0	0	0	436	
1	0	0	0	0	429	
2	0	0	0	0	424	
3	0	0	0	0	421	
4	0	0	0	0	421	
5	0	0	0	0	418	
6	0	0	0	0	415	
7	0	0	0	0	410	
8	0	0	0	0	407	
9	0	0	0	0	401	
10	0	0	0	0	396	
11	0	0	0	0	391	
12	0	0	0	0	387	
13	0	0	0	0	382	
14	0	0	0	0	383	
15	0	0	0	0	386	
0	0	0	0	0	394	
1	0	0	0	0	404	
2	0	0	0	0	407	
3	0	0	0	0	404	
4	0	0	0	0	404	
5	0	0	0	0	411	
6	0	0	0	0	425	
7	0	0	0	0	444	
8	0	0	0	0	465	
9	0	0	0	0	484	
10	0	0	0	0	505	
11	0	0	0	0	523	
12	0	0	0	0	540	
13	0	0	0	0	562	
14	0	0	0	0	585	
15	0	0	0	0	606	
0	0	0	0	0	627	
1	0	0	0	0	646	
2	0	0	0	0	665	
3	0	0	0	0	683	
4	0	0	0	0	699	
5	0	0	0	0	711	
6	0	0	0	0	720	
7	0	0	0	0	724	
8	0	0	0	0	729	
9	0	0	0	0	733	
10	0	0	0	0	736	
11	0	0	0	0	733	
12	0	0	0	0	731	
13	0	0	0	0	729	
14	0	0	0	0	722	
15	0	0	0	0	716	
0	0	0	0	0	709	
1	0	0	0	0	703	
2	0	0	0	0	696	
3	0	0	0	0	689	
4	0	0	0	0	682	
5	0	0	0	0	673	
6	0	0	0	0	669	
7	0	0	0	0	665	
8	0	0	0	0	660	
9	0	0	0	0	653	
10	0	0	0	0	647	
11	0	0	0	0	642	
12	0	0	0	0	638	
13	0	0	0	0	631	
14	0	0	0	0	624	
15	0	0	0	0	617	
0	0	0	0	0	608	
1	0	0	0	0	600	
2	0	0	0	0	592	
3	0	0	0	0	585	
4	0	0	0	0	577	
5	0	0	0	0	568	
6	0	0	0	0	561	
7	0	0	0	0	558	
8	0	0	0	0	553	
9	0	0	0	0	548	
10	0	0	0	0	536	
11	0	0	0	0	521	
12	0	0	0	0	510	
13	0	0	0	0	503	
14	0	0	0	0	498	
15	0	0	0	0	496	
0	0	0	0	0	494	
1	0	0	0	0	489	
2	0	0	0	0	483	
3	0	0	0	0	479	
4	0	0	0	0	475	
5	0	0	0	0	470	
6	0	0	0	0	467	
7	0	0	0	0	463	
8	0	0	0	0	460	
9	0	0	0	0	460	
10	0	0	0	0	458	
11	0	0	0	0	456	
12	0	0	0	0	456	
13	0	0	0	0	455	
14	0	0	0	0	455	
15	0	0	0	0	456	
0	0	0	0	0	456	
1	0	0	0	0	456	
2	0	0	0	0	458	
3	0	0	0	0	460	
4	0	0	0	0	458	
5	0	0	0	0	452	
6	0	0	0	0	446	
7	0	0	0	0	442	
8	0	0	0	0	440	
9	0	0	0	0	441	
10	0	0	0	0	443	
11	0	0	0	0	444	
12	0	0	0	0	444	
13	0	0	0	0	444	
14	0	0	0	0	446	
15	0	0	0	0	448	
0	0	0	0	0	450	
1	0	0	0	0	451	
2	0	0	0	0	451	
3	0	0	0	0	451	
4	0	0	0	0	448	
5	0	0	0	0	446	
6	0	0	0	0	447	
7	0	0	0	0	449	
8	0	0	0	0	452	
9	0	0	0	0	452	
10	0	0	0	0	451	
11	0	0	0	0	455	
12	0	0	0	0	459	
13	0	0	0	0	457	
14	0	0	0	0	455	
15	0	0	0	0	454	
0	0	0	0	0	451	
1	0	0	0	0	450	
2	0	0	0	0	449	
3	0	0	0	0	450	
4	0	0	0	0	451	
5	0	0	0	0	450	
6	0	0	0	0	450	
7	0	0	0	0	450	
8	0	0	0	0	451	
9	0	0	0	0	453	
10	0	0	0	0	455	
11	0	0	0	0	457	
12	0	0	0	0	456	
13	0	0	0	0	456	
14	0	0	0	0	457	
15	0	0	0	0	455	
0	0	0	0	0	455	
1	0	0	0	0	456	
2	0	0	0	0	455	
3	0	0	0	0	456	
4	0	0	0	0	456	
5	0	0	0	0	457	
6	0	0	0	0	458	
7	0	0	0	0	456	
8	0	0	0	0	455	
9	0	0	0	0	456	
10	0	0	0	0	455	
11	0	0	0	0	452	
12	0	0	0	0	448	
13	0	0	0	0	446	
14	0	0	0	0	444	
15	0	0	0	0	446	
0	0	0	0	0	448	
1	0	0	0	0	452	
2	0	0	0	0	455	
3	0	0	0	0	453	
4	0	0	0	0	453	
5	0	0	0	0	451	
6	0	0	0	0	449	
7	0	0	0	0	448	
8	0	0	0	0	443	
9	0	0	0	0	439	
10	0	0	0	0	440	
11	0	0	0	0	444	
12	0	0	0	0	446	
13	0	0	0	0	446	
14	0	0	0	0	448	
15	0	0	0	0	447	
0	0	0	0	0	448	
1	0	0	0	0	450	
2	0	0	0	0	452	
3	0	0	0	0	451	
4	0	0	0	0	447	
5	0	0	0	0	443	
6	0	0	0	0	442	
7	0	0	0	0	440	
8	0	0	0	0	440	
9	0	0	0	0	443	
10	0	0	0	0	444	
11	0	0	0	0	443	
12	0	0	0	0	444	
13	0	0	0	0	443	
14	0	0	0	0	444	
15	0	0	0	0	444	
0	0	0	0	0	445	
1	0	0	0	0	447	
2	0	0	0	0	449	
3	0	0	0	0	446	
4	0	0	0	0	443	
5	0	0	0	0	442	
6	0	0	0	0	441	
7	0	0	0	0	437	
8	0	0	0	0	434	
9	0	0	0	0	436	
10	0	0	0	0	439	
11	0	0	0	0	436	
12	0	0	0	0	435	
13	0	0	0	0	435	
14	0	0	0	0	435	
15	0	0	0	0	437	
0	0	0	0	0	440	
1	0	0	0	0	440	
2	0	0	0	0	438	
3	0	0	0	0	436	
4	0	0	0	0	432	
5	0	0	0	0	427	
6	0	0	0	0	427	
7	0	0	0	0	428	
8	0	0	0	0	430	
9	0	0	0	0	431	
10	0	0	0	0	430	
11	0	0	0	0	428	
12	0	0	0	0	424	
13	0	0	0	0	422	
14	0	0	0	0	425	
15	0	0	0	0	427	
0	0	0	0	0	428	
1	0	0	0	0	427	
2	0	0	0	0	426	
3	0	0	0	0	430	
4	0	0	0	0	432	
5	0	0	0	0	435	
6	0	0	0	0	436	
7	0	0	0	0	439	
8	0	0	0	0	438	
9	0	0	0	0	434	
10	0	0	0	0	431	
11	0	0	0	0	430	
12	0	0	0	0	432	
13	0	0	0	0	434	
14	0	0	0	0	435	
15	0	0	0	0	432	
0	0	0	0	0	431	
1	0	0	0	0	435	
2	0	0	0	0	439	
3	0	0	0	0	441	
4	0	0	0	0	444	
5	0	0	0	0	448	
6	0	0	0	0	451	
7	0	0	0	0	451	
8	0	0	0	0	452	
9	0	0	0	0	454	
10	0	0	0	0	454	
11	0	0	0	0	456	
12	0	0	0	0	458	
13	0	0	0	0	461	
14	0	0	0	0	464	
15	0	0	0	0	464	
0	0	0	0	0	464	
1	0	0	0	0	465	
2	0	0	0	0	465	
3	0	0	0	0	467	
4	0	0	0	0	468	
5	0	0	0	0	469	
6	0	0	0	0	471	
7	0	0	0	0	476	
8	0	0	0	0	483	
9	0	0	0	0	485	
10	0	0	0	0	489	
11	0	0	0	0	489	
12	0	0	0	0	484	
13	0	0	0	0	480	
14	0	0	0	0	482	
15	0	0	0	0	488	
0	0	0	0	0	494	
1	0	0	0	0	500	
2	0	0	0	0	505	
3	0	0	0	0	504	
4	0	0	0	0	501	
5	0	0	0	0	504	
6	0	0	0	0	509	
7	0	0	0	0	513	
8	0	0	0	0	516	
9	0	0	0	0	520	
10	0	0	0	0	524	
11	0	0	0	0	525	
12	0	0	0	0	524	
13	0	0	0	0	524	
14	0	0	0	0	525	
15	0	0	0	0	527	
0	0	0	0	0	526	
1	0	0	0	0	527	
2	0	0	0	0	528	
3	0	0	0	0	531	
4	0	0	0	0	533	
5	0	0	0	0	535	
6	0	0	0	0	538	
7	0	0	0	0	542	
8	0	0	0	0	545	
9	0	0	0	0	545	
10	0	0	0	0	545	
11	0	0	0	0	547	
12	0	0	0	0	550	
13	0	0	0	0	552	
14	0	0	0	0	555	
15	0	0	0	0	558	
0	0	0	0	0	559	
1	0	0	0	0	560	
2	0	0	0	0	562	
3	0	0	0	0	567	
4	0	0	0	0	569	
5	0	0	0	0	570	
6	0	0	0	0	570	
7	0	0	0	0	572	
8	0	0	0	0	572	
9	0	0	0	0	570	
10	0	0	0	0	568	
11	0	0	0	0	566	
12	0	0	0	0	566	
13	0	0	0	0	567	
14	0	0	0	0	567	
15	0	0	0	0	568	
0	0	0	0	0	568	
1	0	0	0	0	566	
2	0	0	0	0	567	
3	0	0	0	0	566	
4	0	0	0	0	565	
5	0	0	0	0	565	
6	0	0	0	0	566	
7	0	0	0	0	568	
8	0	0	0	0	570	
9	0	0	0	0	568	
10	0	0	0	0	566	
11	0	0	0	0	564	
12	0	0	0	0	563	
13	0	0	0	0	562	
14	0	0	0	0	564	
15	0	0	0	0	564	
0	0	0	0	0	563	
1	0	0	0	0	564	
2	0	0	0	0	566	
3	0	0	0	0	565	
4	0	0	0	0	566	
5	0	0	0	0	568	
6	0	0	0	0	570	
7	0	0	0	0	567	
8	0	0	0	0	564	
9	0	0	0	0	563	
10	0	0	0	0	562	
11	0	0	0	0	561	
12	0	0	0	0	561	
13	0	0	0	0	559	
14	0	0	0	0	559	
15	0	0	0	0	562	
0	0	0	0	0	565	
1	0	0	0	0	567	
2	0	0	0	0	568	
3	0	0	0	0	566	
4	0	0	0	0	563	
5	0	0	0	0	560	
6	0	0	0	0	562	
7	0	0	0	0	563	
8	0	0	0	0	563	
9	0	0	0	0	560	
10	0	0	0	0	557	
11	0	0	0	0	556	
12	0	0	0	0	555	
13	0	0	0	0	554	
14	0	0	0	0	552	
15	0	0	0	0	552	
0	0	0	0	0	552	
1	0	0	0	0	552	
2	0	0	0	0	552	
3	0	0	0	0	551	
4	0	0	0	0	552	
5	0	0	0	0	552	
6	0	0	0	0	551	
7	0	0	0	0	550	
8	0	0	0	0	550	
9	0	0	0	0	546	
10	0	0	0	0	545	
11	0	0	0	0	546	
12	0	0	0	0	549	
13	0	0	0	0	553	
14	0	0	0	0	552	
15	0	0	0	0	548	
0	0	0	0	0	548	
1	0	0	0	0	549	
2	0	0	0	0	555	
3	0	0	0	0	556	
4	0	0	0	0	554	
5	0	0	0	0	550	
6	0	0	0	0	542	
7	0	0	0	0	539	
8	0	0	0	0	536	
9	0	0	0	0	532	
10	0	0	0	0	531	
11	0	0	0	0	532	
12	0	0	0	0	531	
13	0	0	0	0	531	
14	0	0	0	0	531	
15	0	0	0	0	532	
0	0	0	0	0	536	
1	0	0	0	0	537	
2	0	0	0	0	537	
3	0	0	0	0	535	
4	0	0	0	0	536	
5	0	0	0	0	533	
6	0	0	0	0	529	
7	0	0	0	0	532	
8	0	0	0	0	535	
9	0	0	0	0	538	
10	0	0	0	0	540	
11	0	0	0	0	536	
12	0	0	0	0	532	
13	0	0	0	0	529	
14	0	0	0	0	527	
15	0	0	0	0	525	
0	0	0	0	0	523	
1	0	0	0	0	524	
2	0	0	0	0	521	
3	0	0	0	0	520	
4	0	0	0	0	522	
5	0	0	0	0	522	
6	0	0	0	0	522	
7	0	0	0	0	523	
8	0	0	0	0	525	
9	0	0	0	0	526	
10	0	0	0	0	525	
11	0	0	0	0	525	
12	0	0	0	0	527	
13	0	0	0	0	528	
14	0	0	0	0	530	
15	0	0	0	0	531	
0	0	0	0	0	532	
1	0	0	0	0	532	
2	0	0	0	0	531	
3	0	0	0	0	527	
4	0	0	0	0	524	
5	0	0	0	0	523	
6	0	0	0	0	523	
7	0	0	0	0	522	
8	0	0	0	0	522	
9	0	0	0	0	525	
10	0	0	0	0	527	
11	0	0	0	0	527	
12	0	0	0	0	524	
13	0	0	0	0	520	
14	0	0	0	0	519	
15	0	0	0	0	519	
0	0	0	0	0	519	
1	0	0	0	0	519	
2	0	0	0	0	520	
3	0	0	0	0	519	
4	0	0	0	0	516	
5	0	0	0	0	513	
6	0	0	0	0	515	
7	0	0	0	0	518	
8	0	0	0	0	521	
9	0	0	0	0	524	
10	0	0	0	0	523	
11	0	0	0	0	521	
12	0	0	0	0	519	
13	0	0	0	0	519	
14	0	0	0	0	519	
15	0	0	0	0	518	
0	0	0	0	0	519	
1	0	0	0	0	522	
2	0	0	0	0	526	
3	0	0	0	0	530	
4	0	0	0	0	529	
5	0	0	0	0	527	
6	0	0	0	0	525	
7	0	0	0	0	522	
8	0	0	0	0	516	
9	0	0	0	0	513	
10	0	0	0	0	514	
11	0	0	0	0	515	
12	0	0	0	0	515	
13	0	0	0	0	517	
14	0	0	0	0	519	
15	0	0	0	0	519	
0	0	0	0	0	516	
1	0	0	0	0	516	
2	0	0	0	0	517	
3	0	0	0	0	517	
4	0	0	0	0	517	
5	0	0	0	0	517	
6	0	0	0	0	516	
7	0	0	0	0	514	
8	0	0	0	0	513	
9	0	0	0	0	514	
10	0	0	0	0	512	
11	0	0	0	0	512	
12	0	0	0	0	513	
13	0	0	0	0	515	
14	0	0	0	0	518	
15	0	0	0	0	519	
0	0	0	0	0	521	
1	0	0	0	0	525	
2	0	0	0	0	524	
3	0	0	0	0	522	
4	0	0	0	0	517	
5	0	0	0	0	513	
6	0	0	0	0	513	
7	0	0	0	0	515	
8	0	0	0	0	515	
9	0	0	0	0	516	
10	0	0	0	0	515	
11	0	0	0	0	516	
12	0	0	0	0	520	
13	0	0	0	0	519	
14	0	0	0	0	519	
15	0	0	0	0	520	
0	0	0	0	0	519	
1	0	0	0	0	516	
2	0	0	0	0	512	
3	0	0	0	0	511	
4	0	0	0	0	512	
5	0	0	0	0	513	
6	0	0	0	0	513	
7	0	0	0	0	511	
8	0	0	0	0	511	
9	0	0	0	0	512	
10	0	0	0	0	513	
11	0	0	0	0	515	
12	0	0	0	0	516	
13	0	0	0	0	514	
14	0	0	0	0	512	
15	0	0	0	0	513	
0	0	0	0	0	513	
1	0	0	0	0	514	
2	0	0	0	0	516	
3	0	0	0	0	515	
4	0	0	0	0	513	
5	0	0	0	0	513	
6	0	0	0	0	513	
7	0	0	0	0	516	
8	0	0	0	0	518	
9	0	0	0	0	522	
10	0	0	0	0	526	
11	0	0	0	0	526	
12	0	0	0	0	523	
13	0	0	0	0	523	
14	0	0	0	0	520	
15	0	0	0	0	515	
0	0	0	0	0	511	
1	0	0	0	0	507	
2	0	0	0	0	504	
3	0	0	0	0	505	
4	0	0	0	0	506	
5	0	0	0	0	506	
6	0	0	0	0	507	
7	0	0	0	0	505	
8	0	0	0	0	505	
9	0	0	0	0	506	
10	0	0	0	0	505	
11	0	0	0	0	506	
12	0	0	0	0	507	
13	0	0	0	0	510	
14	0	0	0	0	512	
15	0	0	0	0	511	
0	0	0	0	0	508	
1	0	0	0	0	507	
2	0	0	0	0	509	
3	0	0	0	0	513	
4	0	0	0	0	515	
5	0	0	0	0	515	
6	0	0	0	0	515	
7	0	0	0	0	509	
8	0	0	0	0	507	
9	0	0	0	0	506	
10	0	0	0	0	506	
11	0	0	0	0	510	
12	0	0	0	0	511	
13	0	0	0	0	511	
14	0	0	0	0	514	
15	0	0	0	0	518	
0	0	0	0	0	516	
1	0	0	0	0	515	
2	0	0	0	0	516	
3	0	0	0	0	515	
4	0	0	0	0	511	
5	0	0	0	0	507	
6	0	0	0	0	504	
7	0	0	0	0	503	
8	0	0	0	0	504	
9	0	0	0	0	504	
10	0	0	0	0	505	
11	0	0	0	0	509	
12	0	0	0	0	511	
13	0	0	0	0	513	
14	0	0	0	0	512	
15	0	0	0	0	511	
0	0	0	0	0	511	
1	0	0	0	0	511	
2	0	0	0	0	511	
3	0	0	0	0	511	
4	0	0	0	0	511	
5	0	0	0	0	511	
6	0	0	0	0	508	
7	0	0	0	0	506	
8	0	0	0	0	507	
9	0	0	0	0	507	
10	0	0	0	0	509	
11	0	0	0	0	508	
12	0	0	0	0	508	
13	0	0	0	0	510	
14	0	0	0	0	512	
15	0	0	0	0	512	
0	0	0	0	0	511	
1	0	0	0	0	508	
2	0	0	0	0	508	
3	0	0	0	0	511	
4	0	0	0	0	509	
5	0	0	0	0	508	
6	0	0	0	0	509	
7	0	0	0	0	509	
8	0	0	0	0	510	
9	0	0	0	0	512	
10	0	0	0	0	513	
11	0	0	0	0	513	
12	0	0	0	0	513	
13	0	0	0	0	511	
14	0	0	0	0	510	
15	0	0	0	0	510	
0	0	0	0	0	511	
1	0	0	0	0	510	
2	0	0	0	0	509	
3	0	0	0	0	510	
4	0	0	0	0	511	
5	0	0	0	0	512	
6	0	0	0	0	514	
7	0	0	0	0	514	
8	0	0	0	0	510	
9	0	0	0	0	503	
10	0	0	0	0	501	
11	0	0	0	0	501	
12	0	0	0	0	504	
13	0	0	0	0	504	
14	0	0	0	0	503	
15	0	0	0	0	501	
0	0	0	0	0	500	
1	0	0	0	0	499	
2	0	0	0	0	502	
3	0	0	0	0	503	
4	0	0	0	0	504	
5	0	0	0	0	504	
6	0	0	0	0	505	
7	0	0	0	0	506	
8	0	0	0	0	505	
9	0	0	0	0	503	
10	0	0	0	0	502	
11	0	0	0	0	502	
12	0	0	0	0	505	
13	0	0	0	0	509	
14	0	0	0	0	511	
15	0	0	0	0	510	
0	0	0	0	0	508	
1	0	0	0	0	507	
2	0	0	0	0	508	
3	0	0	0	0	509	
4	0	0	0	0	506	
5	0	0	0	0	504	
6	0	0	0	0	503	
7	0	0	0	0	503	
8	0	0	0	0	505	
9	0	0	0	0	507	
10	0	0	0	0	509	
11	0	0	0	0	513	
12	0	0	0	0	512	
13	0	0	0	0	511	
14	0	0	0	0	511	
15	0	0	0	0	514	
0	0	0	0	0	514	
1	0	0	0	0	507	
2	0	0	0	0	505	
3	0	0	0	0	504	
4	0	0	0	0	504	
5	0	0	0	0	505	
6	0	0	0	0	505	
7	0	0	0	0	504	
8	0	0	0	0	504	
9	0	0	0	0	507	
10	0	0	0	0	507	
11	0	0	0	0	504	
12	0	0	0	0	500	
13	0	0	0	0	498	
14	0	0	0	0	499	
15	0	0	0	0	499	
0	0	0	0	0	498	
1	0	0	0	0	498	
2	0	0	0	0	499	
3	0	0	0	0	501	
4	0	0	0	0	504	
5	0	0	0	0	503	
6	0	0	0	0	503	
7	0	0	0	0	506	
8	0	0	0	0	505	
9	0	0	0	0	504	
10	0	0	0	0	506	
11	0	0	0	0	510	
12	0	0	0	0	510	
13	0	0	0	0	508	
14	0	0	0	0	504	
15	0	0	0	0	503	
0	0	0	0	0	501	
1	0	0	0	0	498	
2	0	0	0	0	497	
3	0	0	0	0	495	
4	0	0	0	0	494	
5	0	0	0	0	495	
6	0	0	0	0	497	
7	0	0	0	0	497	
8	0	0	0	0	501	
9	0	0	0	0	504	
10	0	0	0	0	504	
11	0	0	0	0	504	
12	0	0	0	0	507	
13	0	0	0	0	506	
14	0	0	0	0	505	
15	0	0	0	0	507	
0	0	0	0	0	511	
1	0	0	0	0	513	
2	0	0	0	0	512	
3	0	0	0	0	509	
4	0	0	0	0	506	
5	0	0	0	0	506	
6	0	0	0	0	508	
7	0	0	0	0	509	
8	0	0	0	0	508	
9	0	0	0	0	503	
10	0	0	0	0	499	
11	0	0	0	0	495	
12	0	0	0	0	493	
13	0	0	0	0	489	
14	0	0	0	0	487	
15	0	0	0	0	487	
0	0	0	0	0	491	
1	0	0	0	0	494	
2	0	0	0	0	492	
3	0	0	0	0	490	
4	0	0	0	0	491	
5	0	0	0	0	492	
6	0	0	0	0	493	
7	0	0	0	0	491	
8	0	0	0	0	491	
9	0	0	0	0	489	
10	0	0	0	0	485	
11	0	0	0	0	482	
12	0	0	0	0	480	
13	0	0	0	0	479	
14	0	0	0	0	480	
15	0	0	0	0	480	
0	0	0	0	0	482	
1	0	0	0	0	484	
2	0	0	0	0	486	
3	0	0	0	0	488	
4	0	0	0	0	492	
5	0	0	0	0	493	
6	0	0	0	0	492	
7	0	0	0	0	490	
8	0	0	0	0	490	
9	0	0	0	0	491	
10	0	0	0	0	493	
11	0	0	0	0	492	
12	0	0	0	0	492	
13	0	0	0	0	496	
14	0	0	0	0	496	
15	0	0	0	0	496	
0	0	0	0	0	497	
1	0	0	0	0	499	
2	0	0	0	0	501	
3	0	0	0	0	502	
4	0	0	0	0	504	
5	0	0	0	0	505	
6	0	0	0	0	502	
7	0	0	0	0	497	
8	0	0	0	0	495	
9	0	0	0	0	495	
10	0	0	0	0	496	
11	0	0	0	0	497	
12	0	0	0	0	497	
13	0	0	0	0	499	
14	0	0	0	0	502	
15	0	0	0	0	507	
0	0	0	0	0	509	
1	0	0	0	0	510	
2	0	0	0	0	509	
3	0	0	0	0	508	
4	0	0	0	0	508	
5	0	0	0	0	508	
6	0	0	0	0	512	
7	0	0	0	0	518	
8	0	0	0	0	518	
9	0	0	0	0	517	
10	0	0	0	0	519	
11	0	0	0	0	523	
12	0	0	0	0	524	
13	0	0	0	0	522	
14	0	0	0	0	524	
15	0	0	0	0	524	
0	0	0	0	0	519	
1	0	0	0	0	515	
2	0	0	0	0	517	
3	0	0	0	0	515	
4	0	0	0	0	512	
5	0	0	0	0	512	
6	0	0	0	0	510	
7	0	0	0	0	508	
8	0	0	0	0	507	
9	0	0	0	0	508	
10	0	0	0	0	511	
11	0	0	0	0	513	
12	0	0	0	0	515	
13	0	0	0	0	515	
14	0	0	0	0	515	
15	0	0	0	0	512	
0	0	0	0	0	512	
1	0	0	0	0	515	
2	0	0	0	0	515	
3	0	0	0	0	515	
4	0	0	0	0	513	
5	0	0	0	0	511	
6	0	0	0	0	509	
7	0	0	0	0	509	
8	0	0	0	0	509	
9	0	0	0	0	506	
10	0	0	0	0	503	
11	0	0	0	0	502	
12	0	0	0	0	501	
13	0	0	0	0	494	
14	0	0	0	0	485	
15	0	0	0	0	477	
0	0	0	0	0	469	
1	0	0	0	0	460	
2	0	0	0	0	453	
3	0	0	0	0	448	
4	0	0	0	0	446	
5	0	0	0	0	441	
6	0	0	0	0	436	
7	0	0	0	0	432	
8	0	0	0	0	430	
9	0	0	0	0	431	
10	0	0	0	0	432	
11	0	0	0	0	427	
12	0	0	0	0	419	
13	0	0	0	0	414	
14	0	0	0	0	408	
15	0	0	0	0	403	
0	0	0	0	0	397	
1	0	0	0	0	390	
2	0	0	0	0	385	
3	0	0	0	0	381	
4	0	0	0	0	382	
5	0	0	0	0	384	
6	0	0	0	0	388	
7	0	0	0	0	398	
8	0	0	0	0	409	
9	0	0	0	0	419	
10	0	0	0	0	425	
11	0	0	0	0	436	
12	0	0	0	0	453	
13	0	0	0	0	474	
14	0	0	0	0	493	
15	0	0	0	0	515	
0	0	0	0	0	535	
1	0	0	0	0	553	
2	0	0	0	0	572	
3	0	0	0	0	593	
4	0	0	0	0	615	
5	0	0	0	0	637	
6	0	0	0	0	657	
7	0	0	0	0	673	
8	0	0	0	0	688	
9	0	0	0	0	700	
10	0	0	0	0	713	
11	0	0	0	0	722	
12	0	0	0	0	725	
13	0	0	0	0	730	
14	0	0	0	0	734	
15	0	0	0	0	738	
0	0	0	0	0	739	
1	0	0	0	0	733	
2	0	0	0	0	725	
3	0	0	0	0	717	
4	0	0	0	0	710	
5	0	0	0	0	705	
6	0	0	0	0	700	
7	0	0	0	0	694	
8	0	0	0	0	689	
9	0	0	0	0	686	
10	0	0	0	0	681	
11	0	0	0	0	675	
12	0	0	0	0	670	
13	0	0	0	0	662	
14	0	0	0	0	653	
15	0	0	0	0	644	
0	0	0	0	0	638	
1	0	0	0	0	633	
2	0	0	0	0	626	
3	0	0	0	0	618	
4	0	0	0	0	608	
5	0	0	0	0	600	
6	0	0	0	0	590	
7	0	0	0	0	583	
8	0	0	0	0	577	
9	0	0	0	0	568	
10	0	0	0	0	561	
11	0	0	0	0	553	
12	0	0	0	0	543	
13	0	0	0	0	533	
14	0	0	0	0	525	
15	0	0	0	0	516	
0	0	0	0	0	508	
1	0	0	0	0	502	
2	0	0	0	0	498	
3	0	0	0	0	497	
4	0	0	0	0	494	
5	0	0	0	0	491	
6	0	0	0	0	488	
7	0	0	0	0	485	
8	0	0	0	0	484	
9	0	0	0	0	484	
10	0	0	0	0	481	
11	0	0	0	0	478	
12	0	0	0	0	474	
13	0	0	0	0	469	
14	0	0	0	0	467	
15	0	0	0	0	465	
0	0	0	0	0	462	
1	0	0	0	0	461	
2	0	0	0	0	464	
3	0	0	0	0	464	
4	0	0	0	0	461	
5	0	0	0	0	459	
6	0	0	0	0	455	
7	0	0	0	0	453	
8	0	0	0	0	452	
9	0	0	0	0	451	
10	0	0	0	0	452	
11	0	0	0	0	451	
12	0	0	0	0	451	
13	0	0	0	0	450	
14	0	0	0	0	451	
15	0	0	0	0	455	
0	0	0	0	0	455	
1	0	0	0	0	457	
2	0	0	0	0	457	
3	0	0	0	0	454	
4	0	0	0	0	450	
5	0	0	0	0	446	
6	0	0	0	0	446	
7	0	0	0	0	447	
8	0	0	0	0	445	
9	0	0	0	0	443	
10	0	0	0	0	446	
11	0	0	0	0	445	
12	0	0	0	0	444	
13	0	0	0	0	449	
14	0	0	0	0	455	
15	0	0	0	0	458	
0	0	0	0	0	457	
1	0	0	0	0	453	
2	0	0	0	0	449	
3	0	0	0	0	446	
4	0	0	0	0	444	
5	0	0	0	0	444	
6	0	0	0	0	443	
7	0	0	0	0	443	
8	0	0	0	0	443	
9	0	0	0	0	444	
10	0	0	0	0	445	
11	0	0	0	0	447	
12	0	0	0	0	448	
13	0	0	0	0	449	
14	0	0	0	0	451	
15	0	0	0	0	454	
0	0	0	0	0	456	
1	0	0	0	0	457	
2	0	0	0	0	456	
3	0	0	0	0	455	
4	0	0	0	0	452	
5	0	0	0	0	450	
6	0	0	0	0	450	
7	0	0	0	0	449	
8	0	0	0	0	450	
9	0	0	0	0	450	
10	0	0	0	0	451	
11	0	0	0	0	451	
12	0	0	0	0	451	
13	0	0	0	0	449	
14	0	0	0	0	446	
15	0	0	0	0	448	
0	0	0	0	0	451	
1	0	0	0	0	451	
2	0	0	0	0	452	
3	0	0	0	0	451	
4	0	0	0	0	449	
5	0	0	0	0	449	
6	0	0	0	0	450	
7	0	0	0	0	454	
8	0	0	0	0	458	
9	0	0	0	0	459	
10	0	0	0	0	456	
11	0	0	0	0	452	
12	0	0	0	0	452	
13	0	0	0	0	453	
14	0	0	0	0	454	
15	0	0	0	0	455	
0	0	0	0	0	454	
1	0	0	0	0	454	
2	0	0	0	0	452	
3	0	0	0	0	451	
4	0	0	0	0	446	
5	0	0	0	0	445	
6	0	0	0	0	446	
7	0	0	0	0	447	
8	0	0	0	0	448	
9	0	0	0	0	449	
10	0	0	0	0	450	
11	0	0	0	0	449	
12	0	0	0	0	447	
13	0	0	0	0	446	
14	0	0	0	0	444	
15	0	0	0	0	442	
0	0	0	0	0	441	
1	0	0	0	0	444	
2	0	0	0	0	448	
3	0	0	0	0	448	
4	0	0	0	0	446	
5	0	0	0	0	442	
6	0	0	0	0	439	
7	0	0	0	0	439	
8	0	0	0	0	438	
9	0	0	0	0	436	
10	0	0	0	0	435	
11	0	0	0	0	434	
12	0	0	0	0	435	
13	0	0	0	0	434	
14	0	0	0	0	435	
15	0	0	0	0	438	
0	0	0	0	0	441	
1	0	0	0	0	440	
2	0	0	0	0	440	
3	0	0	0	0	439	
4	0	0	0	0	438	
5	0	0	0	0	440	
6	0	0	0	0	440	
7	0	0	0	0	435	
8	0	0	0	0	433	
9	0	0	0	0	431	
10	0	0	0	0	431	
11	0	0	0	0	431	
12	0	0	0	0	431	
13	0	0	0	0	430	
14	0	0	0	0	429	
15	0	0	0	0	432	
0	0	0	0	0	435	
1	0	0	0	0	438	
2	0	0	0	0	438	
3	0	0	0	0	438	
4	0	0	0	0	435	
5	0	0	0	0	434	
6	0	0	0	0	434	
7	0	0	0	0	434	
8	0	0	0	0	434	
9	0	0	0	0	432	
10	0	0	0	0	432	
11	0	0	0	0	433	
12	0	0	0	0	434	
13	0	0	0	0	434	
14	0	0	0	0	433	
15	0	0	0	0	433	
0	0	0	0	0	433	
1	0	0	0	0	436	
2	0	0	0	0	440	
3	0	0	0	0	444	
4	0	0	0	0	446	
5	0	0	0	0	448	
6	0	0	0	0	448	
7	0	0	0	0	447	
8	0	0	0	0	448	
9	0	0	0	0	451	
10	0	0	0	0	452	
11	0	0	0	0	451	
12	0	0	0	0	451	
13	0	0	0	0	454	
14	0	0	0	0	457	
15	0	0	0	0	457	
0	0	0	0	0	456	
1	0	0	0	0	458	
2	0	0	0	0	460	
3	0	0	0	0	464	
4	0	0	0	0	463	
5	0	0	0	0	460	
6	0	0	0	0	460	
7	0	0	0	0	465	
8	0	0	0	0	471	
9	0	0	0	0	471	
10	0	0	0	0	474	
11	0	0	0	0	476	
12	0	0	0	0	478	
13	0	0	0	0	476	
14	0	0	0	0	475	
15	0	0	0	0	479	
0	0	0	0	0	481	
1	0	0	0	0	480	
2	0	0	0	0	480	
3	0	0	0	0	481	
4	0	0	0	0	485	
5	0	0	0	0	488	
6	0	0	0	0	492	
7	0	0	0	0	495	
8	0	0	0	0	499	
9	0	0	0	0	500	
10	0	0	0	0	500	
11	0	0	0	0	502	
12	0	0	0	0	504	
13	0	0	0	0	510	
14	0	0	0	0	515	
15	0	0	0	0	519	
0	0	0	0	0	524	
1	0	0	0	0	527	
2	0	0	0	0	527	
3	0	0	0	0	529	
4	0	0	0	0	532	
5	0	0	0	0	535	
6	0	0	0	0	536	
7	0	0	0	0	536	
8	0	0	0	0	536	
9	0	0	0	0	540	
10	0	0	0	0	543	
11	0	0	0	0	544	
12	0	0	0	0	547	
13	0	0	0	0	549	
14	0	0	0	0	547	
15	0	0	0	0	545	
0	0	0	0	0	546	
1	0	0	0	0	546	
2	0	0	0	0	548	
3	0	0	0	0	550	
4	0	0	0	0	551	
5	0	0	0	0	552	
6	0	0	0	0	552	
7	0	0	0	0	553	
8	0	0	0	0	557	
9	0	0	0	0	559	
10	0	0	0	0	560	
11	0	0	0	0	560	
12	0	0	0	0	560	
13	0	0	0	0	561	
14	0	0	0	0	561	
15	0	0	0	0	565	
0	0	0	0	0	569	
1	0	0	0	0	569	
2	0	0	0	0	568	
3	0	0	0	0	564	
4	0	0	0	0	563	
5	0	0	0	0	563	
6	0	0	0	0	559	
7	0	0	0	0	560	
8	0	0	0	0	568	
9	0	0	0	0	572	
10	0	0	0	0	572	
11	0	0	0	0	572	
12	0	0	0	0	573	
13	0	0	0	0	571	
14	0	0	0	0	569	
15	0	0	0	0	569	
0	0	0	0	0	567	
1	0	0	0	0	564	
2	0	0	0	0	563	
3	0	0	0	0	560	
4	0	0	0	0	558	
5	0	0	0	0	557	
6	0	0	0	0	560	
7	0	0	0	0	563	
8	0	0	0	0	563	
9	0	0	0	0	562	
10	0	0	0	0	561	
11	0	0	0	0	561	
12	0	0	0	0	560	
13	0	0	0	0	559	
14	0	0	0	0	560	
15	0	0	0	0	563	
0	0	0	0	0	565	
1	0	0	0	0	562	
2	0	0	0	0	560	
3	0	0	0	0	560	
4	0	0	0	0	563	
5	0	0	0	0	563	
6	0	0	0	0	561	
7	0	0	0	0	559	
8	0	0	0	0	556	
9	0	0	0	0	554	
10	0	0	0	0	557	
11	0	0	0	0	558	
12	0	0	0	0	558	
13	0	0	0	0	558	
14	0	0	0	0	558	
15	0	0	0	0	558	
0	0	0	0	0	558	
1	0	0	0	0	558	
2	0	0	0	0	557	
3	0	0	0	0	556	
4	0	0	0	0	555	
5	0	0	0	0	552	
6	0	0	0	0	551	
7	0	0	0	0	553	
8	0	0	0	0	557	
9	0	0	0	0	557	
10	0	0	0	0	554	
11	0	0	0	0	553	
12	0	0	0	0	553	
13	0	0	0	0	552	
14	0	0	0	0	553	
15	0	0	0	0	550	
0	0	0	0	0	549	
1	0	0	0	0	548	
2	0	0	0	0	544	
3	0	0	0	0	543	
4	0	0	0	0	542	
5	0	0	0	0	542	
6	0	0	0	0	544	
7	0	0	0	0	547	
8	0	0	0	0	549	
9	0	0	0	0	553	
10	0	0	0	0	549	
11	0	0	0	0	540	
12	0	0	0	0	539	
13	0	0	0	0	541	
14	0	0	0	0	543	
15	0	0	0	0	545	
0	0	0	0	0	544	
1	0	0	0	0	540	
2	0	0	0	0	533	
3	0	0	0	0	529	
4	0	0	0	0	527	
5	0	0	0	0	528	
6	0	0	0	0	529	
7	0	0	0	0	531	
8	0	0	0	0	530	
9	0	0	0	0	531	
10	0	0	0	0	532	
11	0	0	0	0	533	
12	0	0	0	0	531	
13	0	0	0	0	529	
14	0	0	0	0	528	
15	0	0	0	0	525	
0	0	0	0	0	524	
1	0	0	0	0	524	
2	0	0	0	0	524	
3	0	0	0	0	520	
4	0	0	0	0	521	
5	0	0	0	0	524	
6	0	0	0	0	530	
7	0	0	0	0	532	
8	0	0	0	0	533	
9	0	0	0	0	534	
10	0	0	0	0	532	
11	0	0	0	0	527	
12	0	0	0	0	523	
13	0	0	0	0	523	
14	0	0	0	0	525	
15	0	0	0	0	524	
0	0	0	0	0	522	
1	0	0	0	0	523	
2	0	0	0	0	523	
3	0	0	0	0	520	
4	0	0	0	0	520	
5	0	0	0	0	521	
6	0	0	0	0	523	
7	0	0	0	0	526	
8	0	0	0	0	527	
9	0	0	0	0	528	
10	0	0	0	0	528	
11	0	0	0	0	527	
12	0	0	0	0	526	
13	0	0	0	0	526	
14	0	0	0	0	527	
15	0	0	0	0	527	
0	0	0	0	0	525	
1	0	0	0	0	523	
2	0	0	0	0	521	
3	0	0	0	0	521	
4	0	0	0	0	521	
5	0	0	0	0	521	
6	0	0	0	0	522	
7	0	0	0	0	523	
8	0	0	0	0	523	
9	0	0	0	0	523	
10	0	0	0	0	525	
11	0	0	0	0	528	
12	0	0	0	0	530	
13	0	0	0	0	530	
14	0	0	0	0	528	
15	0	0	0	0	531	
0	0	0	0	0	529	
1	0	0	0	0	527	
2	0	0	0	0	523	
3	0	0	0	0	521	
4	0	0	0	0	521	
5	0	0	0	0	520	
6	0	0	0	0	517	
7	0	0	0	0	514	
8	0	0	0	0	515	
9	0	0	0	0	514	
10	0	0	0	0	514	
11	0	0	0	0	513	
12	0	0	0	0	515	
13	0	0	0	0	518	
14	0	0	0	0	518	
15	0	0	0	0	519	
0	0	0	0	0	519	
1	0	0	0	0	517	
2	0	0	0	0	515	
3	0	0	0	0	515	
4	0	0	0	0	516	
5	0	0	0	0	515	
6	0	0	0	0	511	
7	0	0	0	0	509	
8	0	0	0	0	510	
9	0	0	0	0	513	
10	0	0	0	0	512	
11	0	0	0	0	511	
12	0	0	0	0	511	
13	0	0	0	0	511	
14	0	0	0	0	511	
15	0	0	0	0	511	
0	0	0	0	0	511	
1	0	0	0	0	513	
2	0	0	0	0	515	
3	0	0	0	0	514	
4	0	0	0	0	513	
5	0	0	0	0	512	
6	0	0	0	0	516	
7	0	0	0	0	518	
8	0	0	0	0	514	
9	0	0	0	0	509	
10	0	0	0	0	509	
11	0	0	0	0	512	
12	0	0	0	0	512	
13	0	0	0	0	513	
14	0	0	0	0	515	
15	0	0	0	0	517	
0	0	0	0	0	518	
1	0	0	0	0	519	
2	0	0	0	0	520	
3	0	0	0	0	524	
4	0	0	0	0	525	
5	0	0	0	0	521	
6	0	0	0	0	517	
7	0	0	0	0	516	
8	0	0	0	0	515	
9	0	0	0	0	516	
10	0	0	0	0	516	
11	0	0	0	0	516	
12	0	0	0	0	516	
13	0	0	0	0	518	
14	0	0	0	0	515	
15	0	0	0	0	515	
0	0	0	0	0	515	
1	0	0	0	0	512	
2	0	0	0	0	514	
3	0	0	0	0	515	
4	0	0	0	0	513	
5	0	0	0	0	511	
6	0	0	0	0	511	
7	0	0	0	0	513	
8	0	0	0	0	514	
9	0	0	0	0	513	
10	0	0	0	0	512	
11	0	0	0	0	516	
12	0	0	0	0	519	
13	0	0	0	0	517	
14	0	0	0	0	516	
15	0	0	0	0	517	
0	0	0	0	0	515	
1	0	0	0	0	515	
2	0	0	0	0	514	
3	0	0	0	0	513	
4	0	0	0	0	513	
5	0	0	0	0	513	
6	0	0	0	0	512	
7	0	0	0	0	513	
8	0	0	0	0	512	
9	0	0	0	0	511	
10	0	0	0	0	512	
11	0	0	0	0	513	
12	0	0	0	0	515	
13	0	0	0	0	515	
14	0	0	0	0	512	
15	0	0	0	0	513	
0	0	0	0	0	511	
1	0	0	0	0	509	
2	0	0	0	0	510	
3	0	0	0	0	511	
4	0	0	0	0	509	
5	0	0	0	0	508	
6	0	0	0	0	508	
7	0	0	0	0	508	
8	0	0	0	0	510	
9	0	0	0	0	514	
10	0	0	0	0	517	
11	0	0	0	0	518	
12	0	0	0	0	519	
13	0	0	0	0	518	
14	0	0	0	0	514	
15	0	0	0	0	513	
0	0	0	0	0	515	
1	0	0	0	0	519	
2	0	0	0	0	518	
3	0	0	0	0	518	
4	0	0	0	0	516	
5	0	0	0	0	514	
6	0	0	0	0	511	
7	0	0	0	0	509	
8	0	0	0	0	508	
9	0	0	0	0	505	
10	0	0	0	0	504	
11	0	0	0	0	506	
12	0	0	0	0	510	
13	0	0	0	0	509	
14	0	0	0	0	508	
15	0	0	0	0	508	
0	0	0	0	0	512	
1	0	0	0	0	513	
2	0	0	0	0	515	
3	0	0	0	0	514	
4	0	0	0	0	512	
5	0	0	0	0	512	
6	0	0	0	0	515	
7	0	0	0	0	515	
8	0	0	0	0	511	
9	0	0	0	0	508	
10	0	0	0	0	506	
11	0	0	0	0	506	
12	0	0	0	0	506	
13	0	0	0	0	508	
14	0	0	0	0	509	
15	0	0	0	0	511	
0	0	0	0	0	511	
1	0	0	0	0	511	
2	0	0	0	0	512	
3	0	0	0	0	513	
4	0	0	0	0	512	
5	0	0	0	0	508	
6	0	0	0	0	508	
7	0	0	0	0	510	
8	0	0	0	0	511	
9	0	0	0	0	511	
10	0	0	0	0	513	
11	0	0	0	0	511	
12	0	0	0	0	510	
13	0	0	0	0	509	
14	0	0	0	0	508	
15	0	0	0	0	508	
0	0	0	0	0	505	
1	0	0	0	0	505	
2	0	0	0	0	509	
3	0	0	0	0	511	
4	0	0	0	0	512	
5	0	0	0	0	509	
6	0	0	0	0	508	
7	0	0	0	0	507	
8	0	0	0	0	507	
9	0	0	0	0	505	
10	0	0	0	0	501	
11	0	0	0	0	500	
12	0	0	0	0	502	
13	0	0	0	0	505	
14	0	0	0	0	507	
15	0	0	0	0	508	
0	0	0	0	0	507	
1	0	0	0	0	504	
2	0	0	0	0	505	
3	0	0	0	0	507	
4	0	0	0	0	508	
5	0	0	0	0	511	
6	0	0	0	0	511	
7	0	0	0	0	510	
8	0	0	0	0	511	
9	0	0	0	0	512	
10	0	0	0	0	512	
11	0	0	0	0	511	
12	0	0	0	0	509	
13	0	0	0	0	508	
14	0	0	0	0	507	
15	0	0	0	0	510	
0	0	0	0	0	511	
1	0	0	0	0	510	
2	0	0	0	0	510	
3	0	0	0	0	504	
4	0	0	0	0	499	
5	0	0	0	0	499	
6	0	0	0	0	502	
7	0	0	0	0	505	
8	0	0	0	0	507	
9	0	0	0	0	505	
10	0	0	0	0	504	
11	0	0	0	0	505	
12	0	0	0	0	505	
13	0	0	0	0	503	
14	0	0	0	0	501	
15	0	0	0	0	502	
0	0	0	0	0	505	
1	0	0	0	0	506	
2	0	0	0	0	506	
3	0	0	0	0	507	
4	0	0	0	0	508	
5	0	0	0	0	509	
6	0	0	0	0	506	
7	0	0	0	0	505	
8	0	0	0	0	507	
9	0	0	0	0	508	
10	0	0	0	0	508	
11	0	0	0	0	508	
12	0	0	0	0	504	
13	0	0	0	0	503	
14	0	0	0	0	502	
15	0	0	0	0	501	
0	0	0	0	0	501	
1	0	0	0	0	500	
2	0	0	0	0	499	
3	0	0	0	0	499	
4	0	0	0	0	503	
5	0	0	0	0	508	
6	0	0	0	0	511	
7	0	0	0	0	512	
8	0	0	0	0	513	
9	0	0	0	0	513	
10	0	0	0	0	512	
11	0	0	0	0	510	
12	0	0	0	0	508	
13	0	0	0	0	506	
14	0	0	0	0	504	
15	0	0	0	0	504	
0	0	0	0	0	505	
1	0	0	0	0	509	
2	0	0	0	0	511	
3	0	0	0	0	511	
4	0	0	0	0	511	
5	0	0	0	0	507	
6	0	0	0	0	504	
7	0	0	0	0	501	
8	0	0	0	0	501	
9	0	0	0	0	502	
10	0	0	0	0	503	
11	0	0	0	0	502	
12	0	0	0	0	500	
13	0	0	0	0	499	
14	0	0	0	0	498	
15	0	0	0	0	499	
0	0	0	0	0	499	
1	0	0	0	0	499	
2	0	0	0	0	499	
3	0	0	0	0	502	
4	0	0	0	0	505	
5	0	0	0	0	506	
6	0	0	0	0	504	
7	0	0	0	0	503	
8	0	0	0	0	501	
9	0	0	0	0	501	
10	0	0	0	0	502	
11	0	0	0	0	503	
12	0	0	0	0	504	
13	0	0	0	0	502	
14	0	0	0	0	500	
15	0	0	0	0	499	
0	0	0	0	0	498	
1	0	0	0	0	495	
2	0	0	0	0	492	
3	0	0	0	0	489	
4	0	0	0	0	487	
5	0	0	0	0	489	
6	0	0	0	0	491	
7	0	0	0	0	493	
8	0	0	0	0	491	
9	0	0	0	0	488	
10	0	0	0	0	488	
11	0	0	0	0	491	
12	0	0	0	0	489	
13	0	0	0	0	487	
14	0	0	0	0	483	
15	0	0	0	0	479	
0	0	0	0	0	475	
1	0	0	0	0	475	
2	0	0	0	0	477	
3	0	0	0	0	480	
4	0	0	0	0	482	
5	0	0	0	0	483	
6	0	0	0	0	484	
7	0	0	0	0	487	
8	0	0	0	0	489	
9	0	0	0	0	493	
10	0	0	0	0	493	
11	0	0	0	0	490	
12	0	0	0	0	489	
13	0	0	0	0	490	
14	0	0	0	0	493	
15	0	0	0	0	496	
0	0	0	0	0	497	
1	0	0	0	0	498	
2	0	0	0	0	497	
3	0	0	0	0	497	
4	0	0	0	0	499	
5	0	0	0	0	500	
6	0	0	0	0	502	
7	0	0	0	0	504	
8	0	0	0	0	505	
9	0	0	0	0	507	
10	0	0	0	0	509	
11	0	0	0	0	510	
12	0	0	0	0	511	
13	0	0	0	0	511	
14	0	0	0	0	512	
15	0	0	0	0	513	
0	0	0	0	0	514	
1	0	0	0	0	512	
2	0	0	0	0	513	
3	0	0	0	0	513	
4	0	0	0	0	514	
5	0	0	0	0	515	
6	0	0	0	0	518	
7	0	0	0	0	517	
8	0	0	0	0	513	
9	0	0	0	0	512	
10	0	0	0	0	513	
11	0	0	0	0	514	
12	0	0	0	0	516	
13	0	0	0	0	516	
14	0	0	0	0	515	
15	0	0	0	0	517	
0	0	0	0	0	516	
1	0	0	0	0	515	
2	0	0	0	0	511	
3	0	0	0	0	507	
4	0	0	0	0	508	
5	0	0	0	0	509	
6	0	0	0	0	511	
7	0	0	0	0	512	
8	0	0	0	0	512	
9	0	0	0	0	514	
10	0	0	0	0	513	
11	0	0	0	0	511	
12	0	0	0	0	511	
13	0	0	0	0	512	
14	0	0	0	0	513	
15	0	0	0	0	511	
0	0	0	0	0	512	
1	0	0	0	0	516	
2	0	0	0	0	516	
3	0	0	0	0	516	
4	0	0	0	0	515	
5	0	0	0	0	514	
6	0	0	0	0	513	
7	0	0	0	0	512	
8	0	0	0	0	508	
9	0	0	0	0	499	
10	0	0	0	0	491	
11	0	0	0	0	487	
12	0	0	0	0	484	
13	0	0	0	0	478	
14	0	0	0	0	473	
15	0	0	0	0	470	
0	0	0	0	0	465	
1	0	0	0	0	461	
2	0	0	0	0	457	
3	0	0	0	0	451	
4	0	0	0	0	447	
5	0	0	0	0	443	
6	0	0	0	0	438	
7	0	0	0	0	435	
8	0	0	0	0	434	
